  3.4804270e-001
  3.5088968e-001
  3.5231317e-001
  3.5231317e-001
  3.4875445e-001
  3.4733096e-001
  3.4875445e-001
  3.5160142e-001
  3.4946619e-001
  3.5587189e-001
  3.5800712e-001
  3.5871886e-001
  3.5729537e-001
  3.5444840e-001
  3.5587189e-001
  3.5729537e-001
  3.5800712e-001
  3.6156584e-001
  3.6085409e-001
  3.6370107e-001
  3.6227758e-001
  3.6014235e-001
  3.6014235e-001
  3.6085409e-001
  3.6156584e-001
  3.6370107e-001
  3.6370107e-001
  3.6654804e-001
  3.6583630e-001
  3.6583630e-001
  3.6298932e-001
  3.6085409e-001
  3.6441281e-001
  3.6654804e-001
  3.6868327e-001
  3.6583630e-001
  3.6797153e-001
  3.6654804e-001
  3.6441281e-001
  3.6583630e-001
  3.6583630e-001
  3.6725979e-001
  3.7081851e-001
  3.6939502e-001
  3.6797153e-001
  3.6583630e-001
  3.6441281e-001
  3.6512456e-001
  3.6583630e-001
  3.6512456e-001
  3.6725979e-001
  3.7010676e-001
  3.6939502e-001
  3.7081851e-001
  3.6797153e-001
  3.6868327e-001
  3.7366548e-001
  3.6725979e-001
  3.7153025e-001
  3.7224199e-001
  3.7224199e-001
  3.7793594e-001
  3.7651246e-001
  3.7651246e-001
  3.7508897e-001
  3.7651246e-001
  3.8078292e-001
  3.8291815e-001
  3.8149466e-001
  3.8434164e-001
  3.8007117e-001
  3.8007117e-001
  3.8078292e-001
  3.7864769e-001
  3.7864769e-001
  3.7935943e-001
  3.7651246e-001
  3.7366548e-001
  3.7295374e-001
  3.6725979e-001
  3.6583630e-001
  3.6583630e-001
  3.6725979e-001
  3.6868327e-001
  3.6868327e-001
  3.7010676e-001
  3.7081851e-001
  3.6939502e-001
  3.6583630e-001
  3.6654804e-001
  3.7010676e-001
  3.7081851e-001
  3.7010676e-001
  3.7437722e-001
  3.7580071e-001
  3.7651246e-001
  3.8149466e-001
  3.8505338e-001
  3.9359431e-001
  4.0711744e-001
  4.2704626e-001
  4.4483986e-001
  4.6192171e-001
  4.6975089e-001
  4.5907473e-001
  4.3345196e-001
  4.0355872e-001
  3.7793594e-001
  3.6370107e-001
  3.6512456e-001
  3.7153025e-001
  3.7722420e-001
  3.7366548e-001
  3.7153025e-001
  3.6654804e-001
  3.6298932e-001
  3.6512456e-001
  3.6156584e-001
  3.6512456e-001
  3.6583630e-001
  3.6441281e-001
  3.6370107e-001
  3.6370107e-001
  3.6227758e-001
  3.6014235e-001
  3.6370107e-001
  3.6512456e-001
  3.6298932e-001
  3.6441281e-001
  3.6227758e-001
  3.6014235e-001
  3.6156584e-001
  3.6156584e-001
  3.6441281e-001
  3.6441281e-001
  3.6298932e-001
  3.6298932e-001
  3.6085409e-001
  3.5871886e-001
  3.5800712e-001
  3.6085409e-001
  3.6370107e-001
  3.6654804e-001
  3.6156584e-001
  3.6298932e-001
  3.6370107e-001
  3.6014235e-001
  3.5943060e-001
  3.5943060e-001
  3.6014235e-001
  3.6370107e-001
  3.6298932e-001
  3.6156584e-001
  3.6227758e-001
  3.5871886e-001
  3.5516014e-001
  3.5729537e-001
  3.5729537e-001
  3.5587189e-001
  3.5658363e-001
  3.5587189e-001
  3.5658363e-001
  3.5444840e-001
  3.5160142e-001
  3.5302491e-001
  3.5302491e-001
  3.5017794e-001
  3.4946619e-001
  3.4875445e-001
  3.4661922e-001
  3.4448399e-001
  3.3950178e-001
  3.3665480e-001
  3.4092527e-001
  3.4092527e-001
  3.4163701e-001
  3.3807829e-001
  3.3807829e-001
  3.3594306e-001
  3.3238434e-001
  3.3238434e-001
  3.3238434e-001
  3.3380783e-001
  3.3380783e-001
  3.3736655e-001
  3.3879004e-001
  3.3879004e-001
  3.4021352e-001
  3.4021352e-001
  3.4021352e-001
  3.4234875e-001
  3.4306050e-001
  3.4661922e-001
  3.4875445e-001
  3.4661922e-001
  3.4733096e-001
  3.4733096e-001
  3.4875445e-001
  3.5231317e-001
  3.5088968e-001
  3.5160142e-001
  3.5160142e-001
  3.5373665e-001
  3.5516014e-001
  3.5231317e-001
  3.5516014e-001
  3.5800712e-001
  3.5871886e-001
  3.6014235e-001
  3.6014235e-001
  3.6156584e-001
  3.6370107e-001
  3.5943060e-001
  3.6085409e-001
  3.6156584e-001
  3.5943060e-001
  3.6156584e-001
  3.6227758e-001
  3.6725979e-001
  3.6797153e-001
  3.6298932e-001
  3.6156584e-001
  3.6298932e-001
  3.6370107e-001
  3.6441281e-001
  3.6441281e-001
  3.6298932e-001
  3.6797153e-001
  3.6725979e-001
  3.6654804e-001
  3.6512456e-001
  3.6725979e-001
  3.6583630e-001
  3.6725979e-001
  3.6939502e-001
  3.7010676e-001
  3.6868327e-001
  3.6797153e-001
  3.6227758e-001
  3.6227758e-001
  3.6441281e-001
  3.6868327e-001
  3.6797153e-001
  3.6939502e-001
  3.7153025e-001
  3.6797153e-001
  3.6583630e-001
  3.6441281e-001
  3.6583630e-001
  3.6725979e-001
  3.6868327e-001
  3.7081851e-001
  3.7580071e-001
  3.7295374e-001
  3.7295374e-001
  3.7366548e-001
  3.7366548e-001
  3.7651246e-001
  3.7722420e-001
  3.7793594e-001
  3.8007117e-001
  3.7722420e-001
  3.7793594e-001
  3.7580071e-001
  3.7224199e-001
  3.7508897e-001
  3.7437722e-001
  3.7295374e-001
  3.7437722e-001
  3.7224199e-001
  3.7224199e-001
  3.6298932e-001
  3.5800712e-001
  3.5658363e-001
  3.6085409e-001
  3.6156584e-001
  3.6583630e-001
  3.6227758e-001
  3.6370107e-001
  3.5943060e-001
  3.6014235e-001
  3.6227758e-001
  3.6014235e-001
  3.6583630e-001
  3.6654804e-001
  3.6583630e-001
  3.6583630e-001
  3.6512456e-001
  3.6725979e-001
  3.6797153e-001
  3.7437722e-001
  3.8149466e-001
  3.9217082e-001
  4.0427046e-001
  4.1992883e-001
  4.4128114e-001
  4.6405694e-001
  4.7615658e-001
  4.8540925e-001
  4.7544484e-001
  4.5053381e-001
  4.1921708e-001
  3.9217082e-001
  3.7580071e-001
  3.6868327e-001
  3.7081851e-001
  3.7437722e-001
  3.7508897e-001
  3.7295374e-001
  3.6797153e-001
  3.6441281e-001
  3.6014235e-001
  3.5800712e-001
  3.5871886e-001
  3.5516014e-001
  3.5943060e-001
  3.6227758e-001
  3.6298932e-001
  3.6156584e-001
  3.6156584e-001
  3.5800712e-001
  3.5444840e-001
  3.5516014e-001
  3.5587189e-001
  3.6085409e-001
  3.5800712e-001
  3.5871886e-001
  3.6156584e-001
  3.6156584e-001
  3.5516014e-001
  3.5516014e-001
  3.5587189e-001
  3.5658363e-001
  3.5871886e-001
  3.6085409e-001
  3.6014235e-001
  3.5943060e-001
  3.5729537e-001
  3.5729537e-001
  3.5658363e-001
  3.5587189e-001
  3.5729537e-001
  3.5800712e-001
  3.5800712e-001
  3.5587189e-001
  3.5658363e-001
  3.5231317e-001
  3.5160142e-001
  3.5444840e-001
  3.5160142e-001
  3.5516014e-001
  3.5444840e-001
  3.5444840e-001
  3.5444840e-001
  3.5160142e-001
  3.4946619e-001
  3.5017794e-001
  3.4875445e-001
  3.4875445e-001
  3.5017794e-001
  3.4377224e-001
  3.4234875e-001
  3.3807829e-001
  3.3950178e-001
  3.3879004e-001
  3.4092527e-001
  3.3665480e-001
  3.3736655e-001
  3.3238434e-001
  3.3167260e-001
  3.3024911e-001
  3.2953737e-001
  3.2882562e-001
  3.2669039e-001
  3.2455516e-001
  3.2669039e-001
  3.2953737e-001
  3.2953737e-001
  3.3024911e-001
  3.2811388e-001
  3.2597865e-001
  3.2384342e-001
  3.2740214e-001
  3.3096085e-001
  3.3736655e-001
  3.3594306e-001
  3.3736655e-001
  3.3451957e-001
  3.3451957e-001
  3.3736655e-001
  3.3879004e-001
  3.4163701e-001
  3.4092527e-001
  3.4519573e-001
  3.4519573e-001
  3.4306050e-001
  3.4021352e-001
  3.4306050e-001
  3.4306050e-001
  3.4804270e-001
  3.5017794e-001
  3.5088968e-001
  3.5088968e-001
  3.5231317e-001
  3.5088968e-001
  3.5231317e-001
  3.5302491e-001
  3.5444840e-001
  3.5729537e-001
  3.6085409e-001
  3.5871886e-001
  3.5800712e-001
  3.5800712e-001
  3.5444840e-001
  3.5729537e-001
  3.5729537e-001
  3.6085409e-001
  3.6014235e-001
  3.6298932e-001
  3.6014235e-001
  3.6085409e-001
  3.5800712e-001
  3.6085409e-001
  3.6085409e-001
  3.6085409e-001
  3.6014235e-001
  3.6156584e-001
  3.6441281e-001
  3.6085409e-001
  3.6156584e-001
  3.6370107e-001
  3.6085409e-001
  3.5871886e-001
  3.6156584e-001
  3.6512456e-001
  3.6298932e-001
  3.6227758e-001
  3.6085409e-001
  3.5516014e-001
  3.5800712e-001
  3.5943060e-001
  3.5871886e-001
  3.6512456e-001
  3.6441281e-001
  3.6370107e-001
  3.6227758e-001
  3.6227758e-001
  3.6370107e-001
  3.6227758e-001
  3.6583630e-001
  3.7081851e-001
  3.7153025e-001
  3.7010676e-001
  3.6583630e-001
  3.6868327e-001
  3.6939502e-001
  3.7224199e-001
  3.7437722e-001
  3.7651246e-001
  3.8078292e-001
  3.7722420e-001
  3.7651246e-001
  3.7153025e-001
  3.7295374e-001
  3.7153025e-001
  3.7153025e-001
  3.7366548e-001
  3.7295374e-001
  3.7153025e-001
  3.6654804e-001
  3.6583630e-001
  3.6298932e-001
  3.6156584e-001
  3.6014235e-001
  3.6156584e-001
  3.6085409e-001
  3.6227758e-001
  3.6298932e-001
  3.6441281e-001
  3.5800712e-001
  3.5943060e-001
  3.5871886e-001
  3.6583630e-001
  3.6654804e-001
  3.6939502e-001
  3.6797153e-001
  3.7081851e-001
  3.6939502e-001
  3.6797153e-001
  3.7366548e-001
  3.8576512e-001
  3.9857651e-001
  4.1423488e-001
  4.3701068e-001
  4.6049822e-001
  4.7758007e-001
  4.8967972e-001
  4.8754448e-001
  4.6832740e-001
  4.3701068e-001
  4.0355872e-001
  3.8007117e-001
  3.6654804e-001
  3.6725979e-001
  3.7010676e-001
  3.7081851e-001
  3.6868327e-001
  3.6939502e-001
  3.6512456e-001
  3.6014235e-001
  3.5444840e-001
  3.5444840e-001
  3.5088968e-001
  3.5017794e-001
  3.4875445e-001
  3.4875445e-001
  3.5088968e-001
  3.5444840e-001
  3.5017794e-001
  3.5088968e-001
  3.4733096e-001
  3.5017794e-001
  3.4590747e-001
  3.4661922e-001
  3.4733096e-001
  3.4661922e-001
  3.5017794e-001
  3.4946619e-001
  3.4946619e-001
  3.4804270e-001
  3.4519573e-001
  3.4448399e-001
  3.4661922e-001
  3.4590747e-001
  3.4733096e-001
  3.4519573e-001
  3.4733096e-001
  3.4733096e-001
  3.4377224e-001
  3.4234875e-001
  3.4377224e-001
  3.4875445e-001
  3.5160142e-001
  3.4946619e-001
  3.4946619e-001
  3.4448399e-001
  3.4377224e-001
  3.4519573e-001
  3.4306050e-001
  3.4590747e-001
  3.5017794e-001
  3.4946619e-001
  3.4590747e-001
  3.4377224e-001
  3.4377224e-001
  3.3950178e-001
  3.4377224e-001
  3.4377224e-001
  3.4234875e-001
  3.4661922e-001
  3.4519573e-001
  3.4163701e-001
  3.4021352e-001
  3.3879004e-001
  3.3736655e-001
  3.3665480e-001
  3.3879004e-001
  3.3736655e-001
  3.3665480e-001
  3.3451957e-001
  3.2811388e-001
  3.2669039e-001
  3.2669039e-001
  3.2384342e-001
  3.2455516e-001
  3.2811388e-001
  3.2811388e-001
  3.2740214e-001
  3.2313167e-001
  3.1814947e-001
  3.2241993e-001
  3.1957295e-001
  3.2669039e-001
  3.3024911e-001
  3.2811388e-001
  3.3096085e-001
  3.3451957e-001
  3.3238434e-001
  3.3451957e-001
  3.3309609e-001
  3.3380783e-001
  3.3523132e-001
  3.3807829e-001
  3.4092527e-001
  3.4163701e-001
  3.3807829e-001
  3.3807829e-001
  3.3950178e-001
  3.3807829e-001
  3.4377224e-001
  3.4377224e-001
  3.4590747e-001
  3.4733096e-001
  3.4804270e-001
  3.4590747e-001
  3.4875445e-001
  3.4733096e-001
  3.4946619e-001
  3.5302491e-001
  3.5587189e-001
  3.5516014e-001
  3.5658363e-001
  3.5516014e-001
  3.5800712e-001
  3.5373665e-001
  3.6014235e-001
  3.5871886e-001
  3.5943060e-001
  3.6014235e-001
  3.6156584e-001
  3.6085409e-001
  3.5729537e-001
  3.5658363e-001
  3.6085409e-001
  3.5871886e-001
  3.6227758e-001
  3.6654804e-001
  3.6298932e-001
  3.6227758e-001
  3.5729537e-001
  3.5943060e-001
  3.6014235e-001
  3.6156584e-001
  3.6156584e-001
  3.6512456e-001
  3.6298932e-001
  3.6298932e-001
  3.6156584e-001
  3.6014235e-001
  3.6085409e-001
  3.6227758e-001
  3.6370107e-001
  3.6298932e-001
  3.6441281e-001
  3.6583630e-001
  3.6298932e-001
  3.6298932e-001
  3.6227758e-001
  3.6227758e-001
  3.6156584e-001
  3.6654804e-001
  3.6797153e-001
  3.6725979e-001
  3.6725979e-001
  3.6512456e-001
  3.6298932e-001
  3.6654804e-001
  3.6797153e-001
  3.7081851e-001
  3.7437722e-001
  3.7508897e-001
  3.7508897e-001
  3.7295374e-001
  3.7437722e-001
  3.7366548e-001
  3.7651246e-001
  3.7793594e-001
  3.7864769e-001
  3.7651246e-001
  3.8007117e-001
  3.7580071e-001
  3.7224199e-001
  3.7081851e-001
  3.7153025e-001
  3.6939502e-001
  3.6725979e-001
  3.6512456e-001
  3.6512456e-001
  3.6298932e-001
  3.5943060e-001
  3.6156584e-001
  3.6014235e-001
  3.6227758e-001
  3.6370107e-001
  3.6725979e-001
  3.6441281e-001
  3.6014235e-001
  3.6085409e-001
  3.6156584e-001
  3.6298932e-001
  3.6156584e-001
  3.6298932e-001
  3.6725979e-001
  3.7153025e-001
  3.7295374e-001
  3.7864769e-001
  3.8149466e-001
  3.9715302e-001
  4.1067616e-001
  4.2989324e-001
  4.4982206e-001
  4.6903915e-001
  4.7686833e-001
  4.7473310e-001
  4.5409253e-001
  4.2633452e-001
  3.9572954e-001
  3.7793594e-001
  3.7437722e-001
  3.7722420e-001
  3.7864769e-001
  3.8149466e-001
  3.7295374e-001
  3.7081851e-001
  3.6512456e-001
  3.6298932e-001
  3.6441281e-001
  3.6370107e-001
  3.6085409e-001
  3.6298932e-001
  3.6227758e-001
  3.6156584e-001
  3.6014235e-001
  3.5729537e-001
  3.5871886e-001
  3.6227758e-001
  3.6014235e-001
  3.6227758e-001
  3.6370107e-001
  3.6014235e-001
  3.5800712e-001
  3.5587189e-001
  3.6085409e-001
  3.6227758e-001
  3.6227758e-001
  3.6085409e-001
  3.6227758e-001
  3.6014235e-001
  3.5302491e-001
  3.5444840e-001
  3.5587189e-001
  3.6014235e-001
  3.6298932e-001
  3.6156584e-001
  3.6156584e-001
  3.5871886e-001
  3.5800712e-001
  3.5587189e-001
  3.5587189e-001
  3.5943060e-001
  3.5871886e-001
  3.6156584e-001
  3.6014235e-001
  3.6227758e-001
  3.5658363e-001
  3.5373665e-001
  3.5444840e-001
  3.5444840e-001
  3.5800712e-001
  3.5516014e-001
  3.5516014e-001
  3.5231317e-001
  3.4804270e-001
  3.4661922e-001
  3.4661922e-001
  3.4875445e-001
  3.4804270e-001
  3.4733096e-001
  3.4661922e-001
  3.4448399e-001
  3.4377224e-001
  3.4163701e-001
  3.4092527e-001
  3.3736655e-001
  3.3807829e-001
  3.3879004e-001
  3.4021352e-001
  3.3736655e-001
  3.3523132e-001
  3.3238434e-001
  3.2953737e-001
  3.3238434e-001
  3.3451957e-001
  3.3451957e-001
  3.3879004e-001
  3.3879004e-001
  3.3523132e-001
  3.3523132e-001
  3.3879004e-001
  3.4021352e-001
  3.4163701e-001
  3.4234875e-001
  3.4590747e-001
  3.4875445e-001
  3.4804270e-001
  3.4661922e-001
  3.4661922e-001
  3.4733096e-001
  3.4804270e-001
  3.5160142e-001
  3.5587189e-001
  3.5587189e-001
  3.5587189e-001
  3.5516014e-001
  3.5729537e-001
  3.5943060e-001
  3.5800712e-001
  3.5800712e-001
  3.6085409e-001
  3.6370107e-001
  3.6441281e-001
  3.6441281e-001
  3.6298932e-001
  3.6725979e-001
  3.6583630e-001
  3.6298932e-001
  3.6654804e-001
  3.6370107e-001
  3.6583630e-001
  3.6797153e-001
  3.6654804e-001
  3.6512456e-001
  3.6725979e-001
  3.6370107e-001
  3.6512456e-001
  3.7081851e-001
  3.6939502e-001
  3.7081851e-001
  3.7010676e-001
  3.6797153e-001
  3.6797153e-001
  3.6654804e-001
  3.7010676e-001
  3.7295374e-001
  3.7366548e-001
  3.7153025e-001
  3.7153025e-001
  3.7010676e-001
  3.7010676e-001
  3.6797153e-001
  3.6797153e-001
  3.7081851e-001
  3.7508897e-001
  3.7295374e-001
  3.7437722e-001
  3.7010676e-001
  3.7153025e-001
  3.6868327e-001
  3.7153025e-001
  3.7295374e-001
  3.7508897e-001
  3.7793594e-001
  3.7935943e-001
  3.7793594e-001
  3.7864769e-001
  3.8149466e-001
  3.8291815e-001
  3.8362989e-001
  3.8790036e-001
  3.8790036e-001
  3.8362989e-001
  3.8576512e-001
  3.8576512e-001
  3.8291815e-001
  3.8149466e-001
  3.8291815e-001
  3.8291815e-001
  3.8576512e-001
  3.8362989e-001
  3.8149466e-001
  3.7935943e-001
  3.7722420e-001
  3.7722420e-001
  3.7224199e-001
  3.7366548e-001
  3.7010676e-001
  3.7651246e-001
  3.7508897e-001
  3.7580071e-001
  3.7224199e-001
  3.7295374e-001
  3.6868327e-001
  3.7081851e-001
  3.7153025e-001
  3.7153025e-001
  3.7081851e-001
  3.7508897e-001
  3.7010676e-001
  3.7081851e-001
  3.7153025e-001
  3.7224199e-001
  3.7793594e-001
  3.8362989e-001
  3.9145907e-001
  4.0071174e-001
  4.1281139e-001
  4.2704626e-001
  4.3843416e-001
  4.5907473e-001
  4.6975089e-001
  4.7188612e-001
  4.6120996e-001
  4.3274021e-001
  4.0000000e-001
  3.7793594e-001
  3.6441281e-001
  3.6725979e-001
  3.7366548e-001
  3.8220641e-001
  3.8220641e-001
  3.8149466e-001
  3.7295374e-001
  3.6725979e-001
  3.6512456e-001
  3.6298932e-001
  3.6227758e-001
  3.6725979e-001
  3.6441281e-001
  3.6370107e-001
  3.6370107e-001
  3.6156584e-001
  3.6156584e-001
  3.6441281e-001
  3.6227758e-001
  3.6441281e-001
  3.6654804e-001
  3.6512456e-001
  3.6654804e-001
  3.6797153e-001
  3.6441281e-001
  3.6156584e-001
  3.6512456e-001
  3.6512456e-001
  3.6227758e-001
  3.6441281e-001
  3.6725979e-001
  3.6583630e-001
  3.6227758e-001
  3.6298932e-001
  3.6156584e-001
  3.6085409e-001
  3.6512456e-001
  3.6583630e-001
  3.6654804e-001
  3.6868327e-001
  3.6654804e-001
  3.6298932e-001
  3.6156584e-001
  3.6227758e-001
  3.6227758e-001
  3.6370107e-001
  3.6370107e-001
  3.6512456e-001
  3.6298932e-001
  3.6014235e-001
  3.5943060e-001
  3.5871886e-001
  3.5729537e-001
  3.5871886e-001
  3.6014235e-001
  3.5871886e-001
  3.5800712e-001
  3.5444840e-001
  3.5373665e-001
  3.5088968e-001
  3.5017794e-001
  3.5017794e-001
  3.4946619e-001
  3.5088968e-001
  3.4733096e-001
  3.4377224e-001
  3.4234875e-001
  3.4234875e-001
  3.3736655e-001
  3.3807829e-001
  3.3736655e-001
  3.4092527e-001
  3.4234875e-001
  3.4306050e-001
  3.4021352e-001
  3.4021352e-001
  3.4163701e-001
  3.4377224e-001
  3.4590747e-001
  3.4875445e-001
  3.5017794e-001
  3.5231317e-001
  3.5658363e-001
  3.5587189e-001
  3.5516014e-001
  3.5516014e-001
  3.5800712e-001
  3.5943060e-001
  3.5943060e-001
  3.6227758e-001
  3.6014235e-001
  3.5871886e-001
  3.6085409e-001
  3.6227758e-001
  3.6441281e-001
  3.6512456e-001
  3.6939502e-001
  3.6654804e-001
  3.6725979e-001
  3.6583630e-001
  3.6583630e-001
  3.6654804e-001
  3.6868327e-001
  3.7081851e-001
  3.7153025e-001
  3.7010676e-001
  3.7153025e-001
  3.6939502e-001
  3.6797153e-001
  3.6797153e-001
  3.7081851e-001
  3.7295374e-001
  3.7366548e-001
  3.7508897e-001
  3.7437722e-001
  3.7437722e-001
  3.7153025e-001
  3.7224199e-001
  3.7153025e-001
  3.7010676e-001
  3.7366548e-001
  3.7437722e-001
  3.7366548e-001
  3.7153025e-001
  3.6868327e-001
  3.6939502e-001
  3.7081851e-001
  3.6939502e-001
  3.6939502e-001
  3.7081851e-001
  3.7295374e-001
  3.7366548e-001
  3.7224199e-001
  3.7081851e-001
  3.6868327e-001
  3.7081851e-001
  3.7224199e-001
  3.7366548e-001
  3.7366548e-001
  3.7366548e-001
  3.7508897e-001
  3.7508897e-001
  3.7224199e-001
  3.7580071e-001
  3.7935943e-001
  3.8078292e-001
  3.8291815e-001
  3.8362989e-001
  3.8220641e-001
  3.8362989e-001
  3.8362989e-001
  3.8505338e-001
  3.8576512e-001
  3.8790036e-001
  3.8790036e-001
  3.8505338e-001
  3.8434164e-001
  3.8434164e-001
  3.8291815e-001
  3.8007117e-001
  3.8007117e-001
  3.8220641e-001
  3.7935943e-001
  3.7864769e-001
  3.7508897e-001
  3.7153025e-001
  3.7010676e-001
  3.6725979e-001
  3.6797153e-001
  3.7224199e-001
  3.7295374e-001
  3.7224199e-001
  3.7295374e-001
  3.7153025e-001
  3.7010676e-001
  3.6939502e-001
  3.7010676e-001
  3.7580071e-001
  3.7081851e-001
  3.7580071e-001
  3.7722420e-001
  3.8149466e-001
  3.8007117e-001
  3.8790036e-001
  3.9857651e-001
  4.0996441e-001
  4.2775801e-001
  4.4982206e-001
  4.6548043e-001
  4.7829181e-001
  4.7615658e-001
  4.6120996e-001
  4.3202847e-001
  4.0071174e-001
  3.7651246e-001
  3.6370107e-001
  3.6512456e-001
  3.6868327e-001
  3.7366548e-001
  3.7508897e-001
  3.7366548e-001
  3.7153025e-001
  3.6868327e-001
  3.7010676e-001
  3.6868327e-001
  3.6725979e-001
  3.6583630e-001
  3.6370107e-001
  3.5800712e-001
  3.6227758e-001
  3.6298932e-001
  3.6441281e-001
  3.6512456e-001
  3.6654804e-001
  3.6441281e-001
  3.6370107e-001
  3.6298932e-001
  3.6085409e-001
  3.6085409e-001
  3.6227758e-001
  3.6370107e-001
  3.6654804e-001
  3.6583630e-001
  3.6797153e-001
  3.6227758e-001
  3.6298932e-001
  3.6014235e-001
  3.6298932e-001
  3.6227758e-001
  3.6370107e-001
  3.6441281e-001
  3.6512456e-001
  3.6370107e-001
  3.6156584e-001
  3.5943060e-001
  3.6085409e-001
  3.6156584e-001
  3.6085409e-001
  3.6441281e-001
  3.6298932e-001
  3.6227758e-001
  3.5871886e-001
  3.5871886e-001
  3.5800712e-001
  3.6014235e-001
  3.6227758e-001
  3.6085409e-001
  3.5800712e-001
  3.5658363e-001
  3.5444840e-001
  3.5231317e-001
  3.5231317e-001
  3.5160142e-001
  3.5088968e-001
  3.5017794e-001
  3.4733096e-001
  3.4875445e-001
  3.4448399e-001
  3.4306050e-001
  3.4163701e-001
  3.3950178e-001
  3.4092527e-001
  3.4163701e-001
  3.4021352e-001
  3.4163701e-001
  3.3807829e-001
  3.3380783e-001
  3.3380783e-001
  3.3238434e-001
  3.3665480e-001
  3.3451957e-001
  3.3807829e-001
  3.3879004e-001
  3.3807829e-001
  3.3807829e-001
  3.4021352e-001
  3.3807829e-001
  3.4021352e-001
  3.4163701e-001
  3.4875445e-001
  3.4946619e-001
  3.4875445e-001
  3.5088968e-001
  3.4875445e-001
  3.4875445e-001
  3.4946619e-001
  3.5088968e-001
  3.5302491e-001
  3.5516014e-001
  3.5658363e-001
  3.5160142e-001
  3.5160142e-001
  3.5444840e-001
  3.5658363e-001
  3.6014235e-001
  3.6014235e-001
  3.6014235e-001
  3.6227758e-001
  3.6156584e-001
  3.5800712e-001
  3.6014235e-001
  3.6014235e-001
  3.6156584e-001
  3.6298932e-001
  3.6512456e-001
  3.6156584e-001
  3.6370107e-001
  3.6085409e-001
  3.6156584e-001
  3.6085409e-001
  3.6014235e-001
  3.6227758e-001
  3.6085409e-001
  3.6298932e-001
  3.6156584e-001
  3.6014235e-001
  3.5943060e-001
  3.6227758e-001
  3.6014235e-001
  3.6227758e-001
  3.6441281e-001
  3.6512456e-001
  3.6370107e-001
  3.6441281e-001
  3.6156584e-001
  3.6085409e-001
  3.6014235e-001
  3.6370107e-001
  3.6441281e-001
  3.6725979e-001
  3.6370107e-001
  3.6298932e-001
  3.6156584e-001
  3.6014235e-001
  3.5943060e-001
  3.6085409e-001
  3.6014235e-001
  3.6227758e-001
  3.6512456e-001
  3.6583630e-001
  3.6298932e-001
  3.6654804e-001
  3.6797153e-001
  3.6583630e-001
  3.7153025e-001
  3.7437722e-001
  3.7651246e-001
  3.7651246e-001
  3.7580071e-001
  3.7366548e-001
  3.7224199e-001
  3.7224199e-001
  3.7580071e-001
  3.7437722e-001
  3.7437722e-001
  3.7295374e-001
  3.7081851e-001
  3.6868327e-001
  3.6156584e-001
  3.5800712e-001
  3.5800712e-001
  3.5729537e-001
  3.5587189e-001
  3.5729537e-001
  3.5516014e-001
  3.5302491e-001
  3.5160142e-001
  3.5444840e-001
  3.5373665e-001
  3.5231317e-001
  3.5729537e-001
  3.5729537e-001
  3.5658363e-001
  3.5871886e-001
  3.5943060e-001
  3.5658363e-001
  3.5587189e-001
  3.5943060e-001
  3.6156584e-001
  3.6939502e-001
  3.8220641e-001
  3.9359431e-001
  4.0284698e-001
  4.2277580e-001
  4.4056940e-001
  4.5409253e-001
  4.5765125e-001
  4.4341637e-001
  4.1423488e-001
  3.8291815e-001
  3.5444840e-001
  3.4306050e-001
  3.4448399e-001
  3.5729537e-001
  3.6441281e-001
  3.6583630e-001
  3.6512456e-001
  3.5871886e-001
  3.5729537e-001
  3.5302491e-001
  3.5302491e-001
  3.4946619e-001
  3.5373665e-001
  3.5373665e-001
  3.5444840e-001
  3.5800712e-001
  3.5516014e-001
  3.5302491e-001
  3.5302491e-001
  3.5088968e-001
  3.5160142e-001
  3.4946619e-001
  3.5302491e-001
  3.5587189e-001
  3.5516014e-001
  3.5373665e-001
  3.4946619e-001
  3.5017794e-001
  3.5160142e-001
  3.4946619e-001
  3.5516014e-001
  3.5587189e-001
  3.5658363e-001
  3.5231317e-001
  3.5160142e-001
  3.5231317e-001
  3.4875445e-001
  3.4804270e-001
  3.5017794e-001
  3.5017794e-001
  3.4946619e-001
  3.5088968e-001
  3.4946619e-001
  3.4804270e-001
  3.4519573e-001
  3.4661922e-001
  3.4804270e-001
  3.5017794e-001
  3.4804270e-001
  3.4875445e-001
  3.4448399e-001
  3.4163701e-001
  3.4234875e-001
  3.4092527e-001
  3.4021352e-001
  3.4448399e-001
  3.4234875e-001
  3.4163701e-001
  3.3950178e-001
  3.3594306e-001
  3.3523132e-001
  3.3167260e-001
  3.2953737e-001
  3.3167260e-001
  3.3380783e-001
  3.3096085e-001
  3.3024911e-001
  3.2882562e-001
  3.2526690e-001
  3.2384342e-001
  3.2313167e-001
  3.2384342e-001
  3.2597865e-001
  3.2526690e-001
  3.2669039e-001
  3.2241993e-001
  3.2028470e-001
  3.2313167e-001
  3.1957295e-001
  3.2170819e-001
  3.2455516e-001
  3.2740214e-001
  3.2882562e-001
  3.3309609e-001
  3.2953737e-001
  3.3238434e-001
  3.3309609e-001
  3.3238434e-001
  3.3665480e-001
  3.4092527e-001
  3.4306050e-001
  3.4163701e-001
  3.3950178e-001
  3.3807829e-001
  3.3594306e-001
  3.4163701e-001
  3.4234875e-001
  3.4661922e-001
  3.4804270e-001
  3.4804270e-001
  3.4590747e-001
  3.4519573e-001
  3.4733096e-001
  3.4448399e-001
  3.4661922e-001
  3.5160142e-001
  3.5444840e-001
  3.5231317e-001
  3.5373665e-001
  3.4946619e-001
  3.5088968e-001
  3.4875445e-001
  3.5516014e-001
  3.5516014e-001
  3.5444840e-001
  3.5658363e-001
  3.5729537e-001
  3.5373665e-001
  3.5444840e-001
  3.5444840e-001
  3.5516014e-001
  3.5658363e-001
  3.5871886e-001
  3.6085409e-001
  3.5943060e-001
  3.5658363e-001
  3.5800712e-001
  3.5658363e-001
  3.5658363e-001
  3.5516014e-001
  3.5871886e-001
  3.6014235e-001
  3.6085409e-001
  3.5587189e-001
  3.5658363e-001
  3.5587189e-001
  3.5444840e-001
  3.5871886e-001
  3.5516014e-001
  3.6298932e-001
  3.6370107e-001
  3.6298932e-001
  3.6085409e-001
  3.6014235e-001
  3.6014235e-001
  3.6227758e-001
  3.6654804e-001
  3.6868327e-001
  3.6797153e-001
  3.7010676e-001
  3.6797153e-001
  3.6868327e-001
  3.6654804e-001
  3.6939502e-001
  3.7295374e-001
  3.7722420e-001
  3.7366548e-001
  3.7508897e-001
  3.7437722e-001
  3.7153025e-001
  3.6939502e-001
  3.6939502e-001
  3.6868327e-001
  3.7153025e-001
  3.7153025e-001
  3.6939502e-001
  3.6512456e-001
  3.6298932e-001
  3.6156584e-001
  3.5871886e-001
  3.5871886e-001
  3.5729537e-001
  3.6156584e-001
  3.6227758e-001
  3.6370107e-001
  3.6156584e-001
  3.6156584e-001
  3.6014235e-001
  3.6014235e-001
  3.6227758e-001
  3.6298932e-001
  3.6654804e-001
  3.6654804e-001
  3.6512456e-001
  3.6512456e-001
  3.6512456e-001
  3.7153025e-001
  3.7935943e-001
  3.9572954e-001
  4.1138790e-001
  4.2775801e-001
  4.4128114e-001
  4.6049822e-001
  4.6334520e-001
  4.4982206e-001
  4.2491103e-001
  3.9359431e-001
  3.6370107e-001
  3.4946619e-001
  3.5160142e-001
  3.6014235e-001
  3.6512456e-001
  3.6654804e-001
  3.6512456e-001
  3.6370107e-001
  3.4804270e-001
  3.5088968e-001
  3.5231317e-001
  3.5231317e-001
  3.4875445e-001
  3.4733096e-001
  3.4875445e-001
  3.5160142e-001
  3.4946619e-001
  3.5587189e-001
  3.5800712e-001
  3.5871886e-001
  3.5729537e-001
  3.5444840e-001
  3.5587189e-001
  3.5729537e-001
  3.5800712e-001
  3.6156584e-001
  3.6085409e-001
  3.6370107e-001
  3.6227758e-001
  3.6014235e-001
  3.6014235e-001
  3.6085409e-001
  3.6156584e-001
  3.6370107e-001
  3.6370107e-001
  3.6654804e-001
  3.6583630e-001
  3.6583630e-001
  3.6298932e-001
  3.6085409e-001
  3.6441281e-001
  3.6654804e-001
  3.6868327e-001
  3.6583630e-001
  3.6797153e-001
  3.6654804e-001
  3.6441281e-001
  3.6583630e-001
  3.6583630e-001
  3.6725979e-001
  3.7081851e-001
  3.6939502e-001
  3.6797153e-001
  3.6583630e-001
  3.6441281e-001
  3.6512456e-001
  3.6583630e-001
  3.6512456e-001
  3.6725979e-001
  3.7010676e-001
  3.6939502e-001
  3.7081851e-001
  3.6797153e-001
  3.6868327e-001
  3.7366548e-001
  3.6725979e-001
  3.7153025e-001
  3.7224199e-001
  3.7224199e-001
  3.7793594e-001
  3.7651246e-001
  3.7651246e-001
  3.7508897e-001
  3.7651246e-001
  3.8078292e-001
  3.8291815e-001
  3.8149466e-001
  3.8434164e-001
  3.8007117e-001
  3.8007117e-001
  3.8078292e-001
  3.7864769e-001
  3.7864769e-001
  3.7935943e-001
  3.7651246e-001
  3.7366548e-001
  3.7295374e-001
  3.6725979e-001
  3.6583630e-001
  3.6583630e-001
  3.6725979e-001
  3.6868327e-001
  3.6868327e-001
  3.7010676e-001
  3.7081851e-001
  3.6939502e-001
  3.6583630e-001
  3.6654804e-001
  3.7010676e-001
  3.7081851e-001
  3.7010676e-001
  3.7437722e-001
  3.7580071e-001
  3.7651246e-001
  3.8149466e-001
  3.8505338e-001
  3.9359431e-001
  4.0711744e-001
  4.2704626e-001
  4.4483986e-001
  4.6192171e-001
  4.6975089e-001
  4.5907473e-001
  4.3345196e-001
  4.0355872e-001
  3.7793594e-001
  3.6370107e-001
  3.6512456e-001
  3.7153025e-001
  3.7722420e-001
  3.7366548e-001
  3.7153025e-001
  3.6654804e-001
  3.6298932e-001
  3.6512456e-001
  3.6156584e-001
  3.6512456e-001
  3.6583630e-001
  3.6441281e-001
  3.6370107e-001
  3.6370107e-001
  3.6227758e-001
  3.6014235e-001
  3.6370107e-001
  3.6512456e-001
  3.6298932e-001
  3.6441281e-001
  3.6227758e-001
  3.6014235e-001
  3.6156584e-001
  3.6156584e-001
  3.6441281e-001
  3.6441281e-001
  3.6298932e-001
  3.6298932e-001
  3.6085409e-001
  3.5871886e-001
  3.5800712e-001
  3.6085409e-001
  3.6370107e-001
  3.6654804e-001
  3.6156584e-001
  3.6298932e-001
  3.6370107e-001
  3.6014235e-001
  3.5943060e-001
  3.5943060e-001
  3.6014235e-001
  3.6370107e-001
  3.6298932e-001
  3.6156584e-001
  3.6227758e-001
  3.5871886e-001
  3.5516014e-001
  3.5729537e-001
  3.5729537e-001
  3.5587189e-001
  3.5658363e-001
  3.5587189e-001
  3.5658363e-001
  3.5444840e-001
  3.5160142e-001
  3.5302491e-001
  3.5302491e-001
  3.5017794e-001
  3.4946619e-001
  3.4875445e-001
  3.4661922e-001
  3.4448399e-001
  3.3950178e-001
  3.3665480e-001
  3.4092527e-001
  3.4092527e-001
  3.4163701e-001
  3.3807829e-001
  3.3807829e-001
  3.3594306e-001
  3.3238434e-001
  3.3238434e-001
  3.3238434e-001
  3.3380783e-001
  3.3380783e-001
  3.3736655e-001
  3.3879004e-001
  3.3879004e-001
  3.4021352e-001
  3.4021352e-001
  3.4021352e-001
  3.4234875e-001
  3.4306050e-001
  3.4661922e-001
  3.4875445e-001
  3.4661922e-001
  3.4733096e-001
  3.4733096e-001
  3.4875445e-001
  3.5231317e-001
  3.5088968e-001
  3.5160142e-001
  3.5160142e-001
  3.5373665e-001
  3.5516014e-001
  3.5231317e-001
  3.5516014e-001
  3.5800712e-001
  3.5871886e-001
  3.6014235e-001
  3.6014235e-001
  3.6156584e-001
  3.6370107e-001
  3.5943060e-001
  3.6085409e-001
  3.6156584e-001
  3.5943060e-001
  3.6156584e-001
  3.6227758e-001
  3.6725979e-001
  3.6797153e-001
  3.6298932e-001
  3.6156584e-001
  3.6298932e-001
  3.6370107e-001
  3.6441281e-001
  3.6441281e-001
  3.6298932e-001
  3.6797153e-001
  3.6725979e-001
  3.6654804e-001
  3.6512456e-001
  3.6725979e-001
  3.6583630e-001
  3.6725979e-001
  3.6939502e-001
  3.7010676e-001
  3.6868327e-001
  3.6797153e-001
  3.6227758e-001
  3.6227758e-001
  3.6441281e-001
  3.6868327e-001
  3.6797153e-001
  3.6939502e-001
  3.7153025e-001
  3.6797153e-001
  3.6583630e-001
  3.6441281e-001
  3.6583630e-001
  3.6725979e-001
  3.6868327e-001
  3.7081851e-001
  3.7580071e-001
  3.7295374e-001
  3.7295374e-001
  3.7366548e-001
  3.7366548e-001
  3.7651246e-001
  3.7722420e-001
  3.7793594e-001
  3.8007117e-001
  3.7722420e-001
  3.7793594e-001
  3.7580071e-001
  3.7224199e-001
  3.7508897e-001
  3.7437722e-001
  3.7295374e-001
  3.7437722e-001
  3.7224199e-001
  3.7224199e-001
  3.6298932e-001
  3.5800712e-001
  3.5658363e-001
  3.6085409e-001
  3.6156584e-001
  3.6583630e-001
  3.6227758e-001
  3.6370107e-001
  3.5943060e-001
  3.6014235e-001
  3.6227758e-001
  3.6014235e-001
  3.6583630e-001
  3.6654804e-001
  3.6583630e-001
  3.6583630e-001
  3.6512456e-001
  3.6725979e-001
  3.6797153e-001
  3.7437722e-001
  3.8149466e-001
  3.9217082e-001
  4.0427046e-001
  4.1992883e-001
  4.4128114e-001
  4.6405694e-001
  4.7615658e-001
  4.8540925e-001
  4.7544484e-001
  4.5053381e-001
  4.1921708e-001
  3.9217082e-001
  3.7580071e-001
  3.6868327e-001
  3.7081851e-001
  3.7437722e-001
  3.7508897e-001
  3.7295374e-001
  3.6797153e-001
  3.6441281e-001
  3.6014235e-001
  3.5800712e-001
  3.5871886e-001
  3.5516014e-001
  3.5943060e-001
  3.6227758e-001
  3.6298932e-001
  3.6156584e-001
  3.6156584e-001
  3.5800712e-001
  3.5444840e-001
  3.5516014e-001
  3.5587189e-001
  3.6085409e-001
  3.5800712e-001
  3.5871886e-001
  3.6156584e-001
  3.6156584e-001
  3.5516014e-001
  3.5516014e-001
  3.5587189e-001
  3.5658363e-001
  3.5871886e-001
  3.6085409e-001
  3.6014235e-001
  3.5943060e-001
  3.5729537e-001
  3.5729537e-001
  3.5658363e-001
  3.5587189e-001
  3.5729537e-001
  3.5800712e-001
  3.5800712e-001
  3.5587189e-001
  3.5658363e-001
  3.5231317e-001
  3.5160142e-001
  3.5444840e-001
  3.5160142e-001
  3.5516014e-001
  3.5444840e-001
  3.5444840e-001
  3.5444840e-001
  3.5160142e-001
  3.4946619e-001
  3.5017794e-001
  3.4875445e-001
  3.4875445e-001
  3.5017794e-001
  3.4377224e-001
  3.4234875e-001
  3.3807829e-001
  3.3950178e-001
  3.3879004e-001
  3.4092527e-001
  3.3665480e-001
  3.3736655e-001
  3.3238434e-001
  3.3167260e-001
  3.3024911e-001
  3.2953737e-001
  3.2882562e-001
  3.2669039e-001
  3.2455516e-001
  3.2669039e-001
  3.2953737e-001
  3.2953737e-001
  3.3024911e-001
  3.2811388e-001
  3.2597865e-001
  3.2384342e-001
  3.2740214e-001
  3.3096085e-001
  3.3736655e-001
  3.3594306e-001
  3.3736655e-001
  3.3451957e-001
  3.3451957e-001
  3.3736655e-001
  3.3879004e-001
  3.4163701e-001
  3.4092527e-001
  3.4519573e-001
  3.4519573e-001
  3.4306050e-001
  3.4021352e-001
  3.4306050e-001
  3.4306050e-001
  3.4804270e-001
  3.5017794e-001
  3.5088968e-001
  3.5088968e-001
  3.5231317e-001
  3.5088968e-001
  3.5231317e-001
  3.5302491e-001
  3.5444840e-001
  3.5729537e-001
  3.6085409e-001
  3.5871886e-001
  3.5800712e-001
  3.5800712e-001
  3.5444840e-001
  3.5729537e-001
  3.5729537e-001
  3.6085409e-001
  3.6014235e-001
  3.6298932e-001
  3.6014235e-001
  3.6085409e-001
  3.5800712e-001
  3.6085409e-001
  3.6085409e-001
  3.6085409e-001
  3.6014235e-001
  3.6156584e-001
  3.6441281e-001
  3.6085409e-001
  3.6156584e-001
  3.6370107e-001
  3.6085409e-001
  3.5871886e-001
  3.6156584e-001
  3.6512456e-001
  3.6298932e-001
  3.6227758e-001
  3.6085409e-001
  3.5516014e-001
  3.5800712e-001
  3.5943060e-001
  3.5871886e-001
  3.6512456e-001
  3.6441281e-001
  3.6370107e-001
  3.6227758e-001
  3.6227758e-001
  3.6370107e-001
  3.6227758e-001
  3.6583630e-001
  3.7081851e-001
  3.7153025e-001
  3.7010676e-001
  3.6583630e-001
  3.6868327e-001
  3.6939502e-001
  3.7224199e-001
  3.7437722e-001
  3.7651246e-001
  3.8078292e-001
  3.7722420e-001
  3.7651246e-001
  3.7153025e-001
  3.7295374e-001
  3.7153025e-001
  3.7153025e-001
  3.7366548e-001
  3.7295374e-001
  3.7153025e-001
  3.6654804e-001
  3.6583630e-001
  3.6298932e-001
  3.6156584e-001
  3.6014235e-001
  3.6156584e-001
  3.6085409e-001
  3.6227758e-001
  3.6298932e-001
  3.6441281e-001
  3.5800712e-001
  3.5943060e-001
  3.5871886e-001
  3.6583630e-001
  3.6654804e-001
  3.6939502e-001
  3.6797153e-001
  3.7081851e-001
  3.6939502e-001
  3.6797153e-001
  3.7366548e-001
  3.8576512e-001
  3.9857651e-001
  4.1423488e-001
  4.3701068e-001
  4.6049822e-001
  4.7758007e-001
  4.8967972e-001
  4.8754448e-001
  4.6832740e-001
  4.3701068e-001
  4.0355872e-001
  3.8007117e-001
  3.6654804e-001
  3.6725979e-001
  3.7010676e-001
  3.7081851e-001
  3.6868327e-001
  3.6939502e-001
  3.6512456e-001
  3.6014235e-001
  3.5444840e-001
  3.5444840e-001
  3.5088968e-001
  3.5017794e-001
  3.4875445e-001
  3.4875445e-001
  3.5088968e-001
  3.5444840e-001
  3.5017794e-001
  3.5088968e-001
  3.4733096e-001
  3.5017794e-001
  3.4590747e-001
  3.4661922e-001
  3.4733096e-001
  3.4661922e-001
  3.5017794e-001
  3.4946619e-001
  3.4946619e-001
  3.4804270e-001
  3.4519573e-001
  3.4448399e-001
  3.4661922e-001
  3.4590747e-001
  3.4733096e-001
  3.4519573e-001
  3.4733096e-001
  3.4733096e-001
  3.4377224e-001
  3.4234875e-001
  3.4377224e-001
  3.4875445e-001
  3.5160142e-001
  3.4946619e-001
  3.4946619e-001
  3.4448399e-001
  3.4377224e-001
  3.4519573e-001
  3.4306050e-001
  3.4590747e-001
  3.5017794e-001
  3.4946619e-001
  3.4590747e-001
  3.4377224e-001
  3.4377224e-001
  3.3950178e-001
  3.4377224e-001
  3.4377224e-001
  3.4234875e-001
  3.4661922e-001
  3.4519573e-001
  3.4163701e-001
  3.4021352e-001
  3.3879004e-001
  3.3736655e-001
  3.3665480e-001
  3.3879004e-001
  3.3736655e-001
  3.3665480e-001
  3.3451957e-001
  3.2811388e-001
  3.2669039e-001
  3.2669039e-001
  3.2384342e-001
  3.2455516e-001
  3.2811388e-001
  3.2811388e-001
  3.2740214e-001
  3.2313167e-001
  3.1814947e-001
  3.2241993e-001
  3.1957295e-001
  3.2669039e-001
  3.3024911e-001
  3.2811388e-001
  3.3096085e-001
  3.3451957e-001
  3.3238434e-001
  3.3451957e-001
  3.3309609e-001
  3.3380783e-001
  3.3523132e-001
  3.3807829e-001
  3.4092527e-001
  3.4163701e-001
  3.3807829e-001
  3.3807829e-001
  3.3950178e-001
  3.3807829e-001
  3.4377224e-001
  3.4377224e-001
  3.4590747e-001
  3.4733096e-001
  3.4804270e-001
  3.4590747e-001
  3.4875445e-001
  3.4733096e-001
  3.4946619e-001
  3.5302491e-001
  3.5587189e-001
  3.5516014e-001
  3.5658363e-001
  3.5516014e-001
  3.5800712e-001
  3.5373665e-001
  3.6014235e-001
  3.5871886e-001
  3.5943060e-001
  3.6014235e-001
  3.6156584e-001
  3.6085409e-001
  3.5729537e-001
  3.5658363e-001
  3.6085409e-001
  3.5871886e-001
  3.6227758e-001
  3.6654804e-001
  3.6298932e-001
  3.6227758e-001
  3.5729537e-001
  3.5943060e-001
  3.6014235e-001
  3.6156584e-001
  3.6156584e-001
  3.6512456e-001
  3.6298932e-001
  3.6298932e-001
  3.6156584e-001
  3.6014235e-001
  3.6085409e-001
  3.6227758e-001
  3.6370107e-001
  3.6298932e-001
  3.6441281e-001
  3.6583630e-001
  3.6298932e-001
  3.6298932e-001
  3.6227758e-001
  3.6227758e-001
  3.6156584e-001
  3.6654804e-001
  3.6797153e-001
  3.6725979e-001
  3.6725979e-001
  3.6512456e-001
  3.6298932e-001
  3.6654804e-001
  3.6797153e-001
  3.7081851e-001
  3.7437722e-001
  3.7508897e-001
  3.7508897e-001
  3.7295374e-001
  3.7437722e-001
  3.7366548e-001
  3.7651246e-001
  3.7793594e-001
  3.7864769e-001
  3.7651246e-001
  3.8007117e-001
  3.7580071e-001
  3.7224199e-001
  3.7081851e-001
  3.7153025e-001
  3.6939502e-001
  3.6725979e-001
  3.6512456e-001
  3.6512456e-001
  3.6298932e-001
  3.5943060e-001
  3.6156584e-001
  3.6014235e-001
  3.6227758e-001
  3.6370107e-001
  3.6725979e-001
  3.6441281e-001
  3.6014235e-001
  3.6085409e-001
  3.6156584e-001
  3.6298932e-001
  3.6156584e-001
  3.6298932e-001
  3.6725979e-001
  3.7153025e-001
  3.7295374e-001
  3.7864769e-001
  3.8149466e-001
  3.9715302e-001
  4.1067616e-001
  4.2989324e-001
  4.4982206e-001
  4.6903915e-001
  4.7686833e-001
  4.7473310e-001
  4.5409253e-001
  4.2633452e-001
  3.9572954e-001
  3.7793594e-001
  3.7437722e-001
  3.7722420e-001
  3.7864769e-001
  3.8149466e-001
  3.7295374e-001
  3.7081851e-001
  3.6512456e-001
  3.6298932e-001
  3.6441281e-001
  3.6370107e-001
  3.6085409e-001
  3.6298932e-001
  3.6227758e-001
  3.6156584e-001
  3.6014235e-001
  3.5729537e-001
  3.5871886e-001
  3.6227758e-001
  3.6014235e-001
  3.6227758e-001
  3.6370107e-001
  3.6014235e-001
  3.5800712e-001
  3.5587189e-001
  3.6085409e-001
  3.6227758e-001
  3.6227758e-001
  3.6085409e-001
  3.6227758e-001
  3.6014235e-001
  3.5302491e-001
  3.5444840e-001
  3.5587189e-001
  3.6014235e-001
  3.6298932e-001
  3.6156584e-001
  3.6156584e-001
  3.5871886e-001
  3.5800712e-001
  3.5587189e-001
  3.5587189e-001
  3.5943060e-001
  3.5871886e-001
  3.6156584e-001
  3.6014235e-001
  3.6227758e-001
  3.5658363e-001
  3.5373665e-001
  3.5444840e-001
  3.5444840e-001
  3.5800712e-001
  3.5516014e-001
  3.5516014e-001
  3.5231317e-001
  3.4804270e-001
  3.4661922e-001
  3.4661922e-001
  3.4875445e-001
  3.4804270e-001
  3.4733096e-001
  3.4661922e-001
  3.4448399e-001
  3.4377224e-001
  3.4163701e-001
  3.4092527e-001
  3.3736655e-001
  3.3807829e-001
  3.3879004e-001
  3.4021352e-001
  3.3736655e-001
  3.3523132e-001
  3.3238434e-001
  3.2953737e-001
  3.3238434e-001
  3.3451957e-001
  3.3451957e-001
  3.3879004e-001
  3.3879004e-001
  3.3523132e-001
  3.3523132e-001
  3.3879004e-001
  3.4021352e-001
  3.4163701e-001
  3.4234875e-001
  3.4590747e-001
  3.4875445e-001
  3.4804270e-001
  3.4661922e-001
  3.4661922e-001
  3.4733096e-001
  3.4804270e-001
  3.5160142e-001
  3.5587189e-001
  3.5587189e-001
  3.5587189e-001
  3.5516014e-001
  3.5729537e-001
  3.5943060e-001
  3.5800712e-001
  3.5800712e-001
  3.6085409e-001
  3.6370107e-001
  3.6441281e-001
  3.6441281e-001
  3.6298932e-001
  3.6725979e-001
  3.6583630e-001
  3.6298932e-001
  3.6654804e-001
  3.6370107e-001
  3.6583630e-001
  3.6797153e-001
  3.6654804e-001
  3.6512456e-001
  3.6725979e-001
  3.6370107e-001
  3.6512456e-001
  3.7081851e-001
  3.6939502e-001
  3.7081851e-001
  3.7010676e-001
  3.6797153e-001
  3.6797153e-001
  3.6654804e-001
  3.7010676e-001
  3.7295374e-001
  3.7366548e-001
  3.7153025e-001
  3.7153025e-001
  3.7010676e-001
  3.7010676e-001
  3.6797153e-001
  3.6797153e-001
  3.7081851e-001
  3.7508897e-001
  3.7295374e-001
  3.7437722e-001
  3.7010676e-001
  3.7153025e-001
  3.6868327e-001
  3.7153025e-001
  3.7295374e-001
  3.7508897e-001
  3.7793594e-001
  3.7935943e-001
  3.7793594e-001
  3.7864769e-001
  3.8149466e-001
  3.8291815e-001
  3.8362989e-001
  3.8790036e-001
  3.8790036e-001
  3.8362989e-001
  3.8576512e-001
  3.8576512e-001
  3.8291815e-001
  3.8149466e-001
  3.8291815e-001
  3.8291815e-001
  3.8576512e-001
  3.8362989e-001
  3.8149466e-001
  3.7935943e-001
  3.7722420e-001
  3.7722420e-001
  3.7224199e-001
  3.7366548e-001
  3.7010676e-001
  3.7651246e-001
  3.7508897e-001
  3.7580071e-001
  3.7224199e-001
  3.7295374e-001
  3.6868327e-001
  3.7081851e-001
  3.7153025e-001
  3.7153025e-001
  3.7081851e-001
  3.7508897e-001
  3.7010676e-001
  3.7081851e-001
  3.7153025e-001
  3.7224199e-001
  3.7793594e-001
  3.8362989e-001
  3.9145907e-001
  4.0071174e-001
  4.1281139e-001
  4.2704626e-001
  4.3843416e-001
  4.5907473e-001
  4.6975089e-001
  4.7188612e-001
  4.6120996e-001
  4.3274021e-001
  4.0000000e-001
  3.7793594e-001
  3.6441281e-001
  3.6725979e-001
  3.7366548e-001
  3.8220641e-001
  3.8220641e-001
  3.8149466e-001
  3.7295374e-001
  3.6725979e-001
  3.6512456e-001
  3.6298932e-001
  3.6227758e-001
  3.6725979e-001
  3.6441281e-001
  3.6370107e-001
  3.6370107e-001
  3.6156584e-001
  3.6156584e-001
  3.6441281e-001
  3.6227758e-001
  3.6441281e-001
  3.6654804e-001
  3.6512456e-001
  3.6654804e-001
  3.6797153e-001
  3.6441281e-001
  3.6156584e-001
  3.6512456e-001
  3.6512456e-001
  3.6227758e-001
  3.6441281e-001
  3.6725979e-001
  3.6583630e-001
  3.6227758e-001
  3.6298932e-001
  3.6156584e-001
  3.6085409e-001
  3.6512456e-001
  3.6583630e-001
  3.6654804e-001
  3.6868327e-001
  3.6654804e-001
  3.6298932e-001
  3.6156584e-001
  3.6227758e-001
  3.6227758e-001
  3.6370107e-001
  3.6370107e-001
  3.6512456e-001
  3.6298932e-001
  3.6014235e-001
  3.5943060e-001
  3.5871886e-001
  3.5729537e-001
  3.5871886e-001
  3.6014235e-001
  3.5871886e-001
  3.5800712e-001
  3.5444840e-001
  3.5373665e-001
  3.5088968e-001
  3.5017794e-001
  3.5017794e-001
  3.4946619e-001
  3.5088968e-001
  3.4733096e-001
  3.4377224e-001
  3.4234875e-001
  3.4234875e-001
  3.3736655e-001
  3.3807829e-001
  3.3736655e-001
  3.4092527e-001
  3.4234875e-001
  3.4306050e-001
  3.4021352e-001
  3.4021352e-001
  3.4163701e-001
  3.4377224e-001
  3.4590747e-001
  3.4875445e-001
  3.5017794e-001
  3.5231317e-001
  3.5658363e-001
  3.5587189e-001
  3.5516014e-001
  3.5516014e-001
  3.5800712e-001
  3.5943060e-001
  3.5943060e-001
  3.6227758e-001
  3.6014235e-001
  3.5871886e-001
  3.6085409e-001
  3.6227758e-001
  3.6441281e-001
  3.6512456e-001
  3.6939502e-001
  3.6654804e-001
  3.6725979e-001
  3.6583630e-001
  3.6583630e-001
  3.6654804e-001
  3.6868327e-001
  3.7081851e-001
  3.7153025e-001
  3.7010676e-001
  3.7153025e-001
  3.6939502e-001
  3.6797153e-001
  3.6797153e-001
  3.7081851e-001
  3.7295374e-001
  3.7366548e-001
  3.7508897e-001
  3.7437722e-001
  3.7437722e-001
  3.7153025e-001
  3.7224199e-001
  3.7153025e-001
  3.7010676e-001
  3.7366548e-001
  3.7437722e-001
  3.7366548e-001
  3.7153025e-001
  3.6868327e-001
  3.6939502e-001
  3.7081851e-001
  3.6939502e-001
  3.6939502e-001
  3.7081851e-001
  3.7295374e-001
  3.7366548e-001
  3.7224199e-001
  3.7081851e-001
  3.6868327e-001
  3.7081851e-001
  3.7224199e-001
  3.7366548e-001
  3.7366548e-001
  3.7366548e-001
  3.7508897e-001
  3.7508897e-001
  3.7224199e-001
  3.7580071e-001
  3.7935943e-001
  3.8078292e-001
  3.8291815e-001
  3.8362989e-001
  3.8220641e-001
  3.8362989e-001
  3.8362989e-001
  3.8505338e-001
  3.8576512e-001
  3.8790036e-001
  3.8790036e-001
  3.8505338e-001
  3.8434164e-001
  3.8434164e-001
  3.8291815e-001
  3.8007117e-001
  3.8007117e-001
  3.8220641e-001
  3.7935943e-001
  3.7864769e-001
  3.7508897e-001
  3.7153025e-001
  3.7010676e-001
  3.6725979e-001
  3.6797153e-001
  3.7224199e-001
  3.7295374e-001
  3.7224199e-001
  3.7295374e-001
  3.7153025e-001
  3.7010676e-001
  3.6939502e-001
  3.7010676e-001
  3.7580071e-001
  3.7081851e-001
  3.7580071e-001
  3.7722420e-001
  3.8149466e-001
  3.8007117e-001
  3.8790036e-001
  3.9857651e-001
  4.0996441e-001
  4.2775801e-001
  4.4982206e-001
  4.6548043e-001
  4.7829181e-001
  4.7615658e-001
  4.6120996e-001
  4.3202847e-001
  4.0071174e-001
  3.7651246e-001
  3.6370107e-001
  3.6512456e-001
  3.6868327e-001
  3.7366548e-001
  3.7508897e-001
  3.7366548e-001
  3.7153025e-001
  3.6868327e-001
  3.7010676e-001
  3.6868327e-001
  3.6725979e-001
  3.6583630e-001
  3.6370107e-001
  3.5800712e-001
  3.6227758e-001
  3.6298932e-001
  3.6441281e-001
  3.6512456e-001
  3.6654804e-001
  3.6441281e-001
  3.6370107e-001
  3.6298932e-001
  3.6085409e-001
  3.6085409e-001
  3.6227758e-001
  3.6370107e-001
  3.6654804e-001
  3.6583630e-001
  3.6797153e-001
  3.6227758e-001
  3.6298932e-001
  3.6014235e-001
  3.6298932e-001
  3.6227758e-001
  3.6370107e-001
  3.6441281e-001
  3.6512456e-001
  3.6370107e-001
  3.6156584e-001
  3.5943060e-001
  3.6085409e-001
  3.6156584e-001
  3.6085409e-001
  3.6441281e-001
  3.6298932e-001
  3.6227758e-001
  3.5871886e-001
  3.5871886e-001
  3.5800712e-001
  3.6014235e-001
  3.6227758e-001
  3.6085409e-001
  3.5800712e-001
  3.5658363e-001
  3.5444840e-001
  3.5231317e-001
  3.5231317e-001
  3.5160142e-001
  3.5088968e-001
  3.5017794e-001
  3.4733096e-001
  3.4875445e-001
  3.4448399e-001
  3.4306050e-001
  3.4163701e-001
  3.3950178e-001
  3.4092527e-001
  3.4163701e-001
  3.4021352e-001
  3.4163701e-001
  3.3807829e-001
  3.3380783e-001
  3.3380783e-001
  3.3238434e-001
  3.3665480e-001
  3.3451957e-001
  3.3807829e-001
  3.3879004e-001
  3.3807829e-001
  3.3807829e-001
  3.4021352e-001
  3.3807829e-001
  3.4021352e-001
  3.4163701e-001
  3.4875445e-001
  3.4946619e-001
  3.4875445e-001
  3.5088968e-001
  3.4875445e-001
  3.4875445e-001
  3.4946619e-001
  3.5088968e-001
  3.5302491e-001
  3.5516014e-001
  3.5658363e-001
  3.5160142e-001
  3.5160142e-001
  3.5444840e-001
  3.5658363e-001
  3.6014235e-001
  3.6014235e-001
  3.6014235e-001
  3.6227758e-001
  3.6156584e-001
  3.5800712e-001
  3.6014235e-001
  3.6014235e-001
  3.6156584e-001
  3.6298932e-001
  3.6512456e-001
  3.6156584e-001
  3.6370107e-001
  3.6085409e-001
  3.6156584e-001
  3.6085409e-001
  3.6014235e-001
  3.6227758e-001
  3.6085409e-001
  3.6298932e-001
  3.6156584e-001
  3.6014235e-001
  3.5943060e-001
  3.6227758e-001
  3.6014235e-001
  3.6227758e-001
  3.6441281e-001
  3.6512456e-001
  3.6370107e-001
  3.6441281e-001
  3.6156584e-001
  3.6085409e-001
  3.6014235e-001
  3.6370107e-001
  3.6441281e-001
  3.6725979e-001
  3.6370107e-001
  3.6298932e-001
  3.6156584e-001
  3.6014235e-001
  3.5943060e-001
  3.6085409e-001
  3.6014235e-001
  3.6227758e-001
  3.6512456e-001
  3.6583630e-001
  3.6298932e-001
  3.6654804e-001
  3.6797153e-001
  3.6583630e-001
  3.7153025e-001
  3.7437722e-001
  3.7651246e-001
  3.7651246e-001
  3.7580071e-001
  3.7366548e-001
  3.7224199e-001
  3.7224199e-001
  3.7580071e-001
  3.7437722e-001
  3.7437722e-001
  3.7295374e-001
  3.7081851e-001
  3.6868327e-001
  3.6156584e-001
  3.5800712e-001
  3.5800712e-001
  3.5729537e-001
  3.5587189e-001
  3.5729537e-001
  3.5516014e-001
  3.5302491e-001
  3.5160142e-001
  3.5444840e-001
  3.5373665e-001
  3.5231317e-001
  3.5729537e-001
  3.5729537e-001
  3.5658363e-001
  3.5871886e-001
  3.5943060e-001
  3.5658363e-001
  3.5587189e-001
  3.5943060e-001
  3.6156584e-001
  3.6939502e-001
  3.8220641e-001
  3.9359431e-001
  4.0284698e-001
  4.2277580e-001
  4.4056940e-001
  4.5409253e-001
  4.5765125e-001
  4.4341637e-001
  4.1423488e-001
  3.8291815e-001
  3.5444840e-001
  3.4306050e-001
  3.4448399e-001
  3.5729537e-001
  3.6441281e-001
  3.6583630e-001
  3.6512456e-001
  3.5871886e-001
  3.5729537e-001
  3.5302491e-001
  3.5302491e-001
  3.4946619e-001
  3.5373665e-001
  3.5373665e-001
  3.5444840e-001
  3.5800712e-001
  3.5516014e-001
  3.5302491e-001
  3.5302491e-001
  3.5088968e-001
  3.5160142e-001
  3.4946619e-001
  3.5302491e-001
  3.5587189e-001
  3.5516014e-001
  3.5373665e-001
  3.4946619e-001
  3.5017794e-001
  3.5160142e-001
  3.4946619e-001
  3.5516014e-001
  3.5587189e-001
  3.5658363e-001
  3.5231317e-001
  3.5160142e-001
  3.5231317e-001
  3.4875445e-001
  3.4804270e-001
  3.5017794e-001
  3.5017794e-001
  3.4946619e-001
  3.5088968e-001
  3.4946619e-001
  3.4804270e-001
  3.4519573e-001
  3.4661922e-001
  3.4804270e-001
  3.5017794e-001
  3.4804270e-001
  3.4875445e-001
  3.4448399e-001
  3.4163701e-001
  3.4234875e-001
  3.4092527e-001
  3.4021352e-001
  3.4448399e-001
  3.4234875e-001
  3.4163701e-001
  3.3950178e-001
  3.3594306e-001
  3.3523132e-001
  3.3167260e-001
  3.2953737e-001
  3.3167260e-001
  3.3380783e-001
  3.3096085e-001
  3.3024911e-001
  3.2882562e-001
  3.2526690e-001
  3.2384342e-001
  3.2313167e-001
  3.2384342e-001
  3.2597865e-001
  3.2526690e-001
  3.2669039e-001
  3.2241993e-001
  3.2028470e-001
  3.2313167e-001
  3.1957295e-001
  3.2170819e-001
  3.2455516e-001
  3.2740214e-001
  3.2882562e-001
  3.3309609e-001
  3.2953737e-001
  3.3238434e-001
  3.3309609e-001
  3.3238434e-001
  3.3665480e-001
  3.4092527e-001
  3.4306050e-001
  3.4163701e-001
  3.3950178e-001
  3.3807829e-001
  3.3594306e-001
  3.4163701e-001
  3.4234875e-001
  3.4661922e-001
  3.4804270e-001
  3.4804270e-001
  3.4590747e-001
  3.4519573e-001
  3.4733096e-001
  3.4448399e-001
  3.4661922e-001
  3.5160142e-001
  3.5444840e-001
  3.5231317e-001
  3.5373665e-001
  3.4946619e-001
  3.5088968e-001
  3.4875445e-001
  3.5516014e-001
  3.5516014e-001
  3.5444840e-001
  3.5658363e-001
  3.5729537e-001
  3.5373665e-001
  3.5444840e-001
  3.5444840e-001
  3.5516014e-001
  3.5658363e-001
  3.5871886e-001
  3.6085409e-001
  3.5943060e-001
  3.5658363e-001
  3.5800712e-001
  3.5658363e-001
  3.5658363e-001
  3.5516014e-001
  3.5871886e-001
  3.6014235e-001
  3.6085409e-001
  3.5587189e-001
  3.5658363e-001
  3.5587189e-001
  3.5444840e-001
  3.5871886e-001
  3.5516014e-001
  3.6298932e-001
  3.6370107e-001
  3.6298932e-001
  3.6085409e-001
  3.6014235e-001
  3.6014235e-001
  3.6227758e-001
  3.6654804e-001
  3.6868327e-001
  3.6797153e-001
  3.7010676e-001
  3.6797153e-001
  3.6868327e-001
  3.6654804e-001
  3.6939502e-001
  3.7295374e-001
  3.7722420e-001
  3.7366548e-001
  3.7508897e-001
  3.7437722e-001
  3.7153025e-001
  3.6939502e-001
  3.6939502e-001
  3.6868327e-001
  3.7153025e-001
  3.7153025e-001
  3.6939502e-001
  3.6512456e-001
  3.6298932e-001
  3.6156584e-001
  3.5871886e-001
  3.5871886e-001
  3.5729537e-001
  3.6156584e-001
  3.6227758e-001
  3.6370107e-001
  3.6156584e-001
  3.6156584e-001
  3.6014235e-001
  3.6014235e-001
  3.6227758e-001
  3.6298932e-001
  3.6654804e-001
  3.6654804e-001
  3.6512456e-001
  3.6512456e-001
  3.6512456e-001
  3.7153025e-001
  3.7935943e-001
  3.9572954e-001
  4.1138790e-001
  4.2775801e-001
  4.4128114e-001
  4.6049822e-001
  4.6334520e-001
  4.4982206e-001
  4.2491103e-001
  3.9359431e-001
  3.6370107e-001
  3.4946619e-001
  3.5160142e-001
  3.6014235e-001
  3.6512456e-001
  3.6654804e-001
  3.6512456e-001
  3.6370107e-001
  3.4804270e-001
  3.5088968e-001
  3.5231317e-001
  3.5231317e-001
  3.4875445e-001
  3.4733096e-001
  3.4875445e-001
  3.5160142e-001
  3.4946619e-001
  3.5587189e-001
  3.5800712e-001
  3.5871886e-001
  3.5729537e-001
  3.5444840e-001
  3.5587189e-001
  3.5729537e-001
  3.5800712e-001
  3.6156584e-001
  3.6085409e-001
  3.6370107e-001
  3.6227758e-001
  3.6014235e-001
  3.6014235e-001
  3.6085409e-001
  3.6156584e-001
  3.6370107e-001
  3.6370107e-001
  3.6654804e-001
  3.6583630e-001
  3.6583630e-001
  3.6298932e-001
  3.6085409e-001
  3.6441281e-001
  3.6654804e-001
  3.6868327e-001
  3.6583630e-001
  3.6797153e-001
  3.6654804e-001
  3.6441281e-001
  3.6583630e-001
  3.6583630e-001
  3.6725979e-001
  3.7081851e-001
  3.6939502e-001
  3.6797153e-001
  3.6583630e-001
  3.6441281e-001
  3.6512456e-001
  3.6583630e-001
  3.6512456e-001
  3.6725979e-001
  3.7010676e-001
  3.6939502e-001
  3.7081851e-001
  3.6797153e-001
  3.6868327e-001
  3.7366548e-001
  3.6725979e-001
  3.7153025e-001
  3.7224199e-001
  3.7224199e-001
  3.7793594e-001
  3.7651246e-001
  3.7651246e-001
  3.7508897e-001
  3.7651246e-001
  3.8078292e-001
  3.8291815e-001
  3.8149466e-001
  3.8434164e-001
  3.8007117e-001
  3.8007117e-001
  3.8078292e-001
  3.7864769e-001
  3.7864769e-001
  3.7935943e-001
  3.7651246e-001
  3.7366548e-001
  3.7295374e-001
  3.6725979e-001
  3.6583630e-001
  3.6583630e-001
  3.6725979e-001
  3.6868327e-001
  3.6868327e-001
  3.7010676e-001
  3.7081851e-001
  3.6939502e-001
  3.6583630e-001
  3.6654804e-001
  3.7010676e-001
  3.7081851e-001
  3.7010676e-001
  3.7437722e-001
  3.7580071e-001
  3.7651246e-001
  3.8149466e-001
  3.8505338e-001
  3.9359431e-001
  4.0711744e-001
  4.2704626e-001
  4.4483986e-001
  4.6192171e-001
  4.6975089e-001
  4.5907473e-001
  4.3345196e-001
  4.0355872e-001
  3.7793594e-001
  3.6370107e-001
  3.6512456e-001
  3.7153025e-001
  3.7722420e-001
  3.7366548e-001
  3.7153025e-001
  3.6654804e-001
  3.6298932e-001
  3.6512456e-001
  3.6156584e-001
  3.6512456e-001
  3.6583630e-001
  3.6441281e-001
  3.6370107e-001
  3.6370107e-001
  3.6227758e-001
  3.6014235e-001
  3.6370107e-001
  3.6512456e-001
  3.6298932e-001
  3.6441281e-001
  3.6227758e-001
  3.6014235e-001
  3.6156584e-001
  3.6156584e-001
  3.6441281e-001
  3.6441281e-001
  3.6298932e-001
  3.6298932e-001
  3.6085409e-001
  3.5871886e-001
  3.5800712e-001
  3.6085409e-001
  3.6370107e-001
  3.6654804e-001
  3.6156584e-001
  3.6298932e-001
  3.6370107e-001
  3.6014235e-001
  3.5943060e-001
  3.5943060e-001
  3.6014235e-001
  3.6370107e-001
  3.6298932e-001
  3.6156584e-001
  3.6227758e-001
  3.5871886e-001
  3.5516014e-001
  3.5729537e-001
  3.5729537e-001
  3.5587189e-001
  3.5658363e-001
  3.5587189e-001
  3.5658363e-001
  3.5444840e-001
  3.5160142e-001
  3.5302491e-001
  3.5302491e-001
  3.5017794e-001
  3.4946619e-001
  3.4875445e-001
  3.4661922e-001
  3.4448399e-001
  3.3950178e-001
  3.3665480e-001
  3.4092527e-001
  3.4092527e-001
  3.4163701e-001
  3.3807829e-001
  3.3807829e-001
  3.3594306e-001
  3.3238434e-001
  3.3238434e-001
  3.3238434e-001
  3.3380783e-001
  3.3380783e-001
  3.3736655e-001
  3.3879004e-001
  3.3879004e-001
  3.4021352e-001
  3.4021352e-001
  3.4021352e-001
  3.4234875e-001
  3.4306050e-001
  3.4661922e-001
  3.4875445e-001
  3.4661922e-001
  3.4733096e-001
  3.4733096e-001
  3.4875445e-001
  3.5231317e-001
  3.5088968e-001
  3.5160142e-001
  3.5160142e-001
  3.5373665e-001
  3.5516014e-001
  3.5231317e-001
  3.5516014e-001
  3.5800712e-001
  3.5871886e-001
  3.6014235e-001
  3.6014235e-001
  3.6156584e-001
  3.6370107e-001
  3.5943060e-001
  3.6085409e-001
  3.6156584e-001
  3.5943060e-001
  3.6156584e-001
  3.6227758e-001
  3.6725979e-001
  3.6797153e-001
  3.6298932e-001
  3.6156584e-001
  3.6298932e-001
  3.6370107e-001
  3.6441281e-001
  3.6441281e-001
  3.6298932e-001
  3.6797153e-001
  3.6725979e-001
  3.6654804e-001
  3.6512456e-001
  3.6725979e-001
  3.6583630e-001
  3.6725979e-001
  3.6939502e-001
  3.7010676e-001
  3.6868327e-001
  3.6797153e-001
  3.6227758e-001
  3.6227758e-001
  3.6441281e-001
  3.6868327e-001
  3.6797153e-001
  3.6939502e-001
  3.7153025e-001
  3.6797153e-001
  3.6583630e-001
  3.6441281e-001
  3.6583630e-001
  3.6725979e-001
  3.6868327e-001
  3.7081851e-001
  3.7580071e-001
  3.7295374e-001
  3.7295374e-001
  3.7366548e-001
  3.7366548e-001
  3.7651246e-001
  3.7722420e-001
  3.7793594e-001
  3.8007117e-001
  3.7722420e-001
  3.7793594e-001
  3.7580071e-001
  3.7224199e-001
  3.7508897e-001
  3.7437722e-001
  3.7295374e-001
  3.7437722e-001
  3.7224199e-001
  3.7224199e-001
  3.6298932e-001
  3.5800712e-001
  3.5658363e-001
  3.6085409e-001
  3.6156584e-001
  3.6583630e-001
  3.6227758e-001
  3.6370107e-001
  3.5943060e-001
  3.6014235e-001
  3.6227758e-001
  3.6014235e-001
  3.6583630e-001
  3.6654804e-001
  3.6583630e-001
  3.6583630e-001
  3.6512456e-001
  3.6725979e-001
  3.6797153e-001
  3.7437722e-001
  3.8149466e-001
  3.9217082e-001
  4.0427046e-001
  4.1992883e-001
  4.4128114e-001
  4.6405694e-001
  4.7615658e-001
  4.8540925e-001
  4.7544484e-001
  4.5053381e-001
  4.1921708e-001
  3.9217082e-001
  3.7580071e-001
  3.6868327e-001
  3.7081851e-001
  3.7437722e-001
  3.7508897e-001
  3.7295374e-001
  3.6797153e-001
  3.6441281e-001
  3.6014235e-001
  3.5800712e-001
  3.5871886e-001
  3.5516014e-001
  3.5943060e-001
  3.6227758e-001
  3.6298932e-001
  3.6156584e-001
  3.6156584e-001
  3.5800712e-001
  3.5444840e-001
  3.5516014e-001
  3.5587189e-001
  3.6085409e-001
  3.5800712e-001
  3.5871886e-001
  3.6156584e-001
  3.6156584e-001
  3.5516014e-001
  3.5516014e-001
  3.5587189e-001
  3.5658363e-001
  3.5871886e-001
  3.6085409e-001
  3.6014235e-001
  3.5943060e-001
  3.5729537e-001
  3.5729537e-001
  3.5658363e-001
  3.5587189e-001
  3.5729537e-001
  3.5800712e-001
  3.5800712e-001
  3.5587189e-001
  3.5658363e-001
  3.5231317e-001
  3.5160142e-001
  3.5444840e-001
  3.5160142e-001
  3.5516014e-001
  3.5444840e-001
  3.5444840e-001
  3.5444840e-001
  3.5160142e-001
  3.4946619e-001
  3.5017794e-001
  3.4875445e-001
  3.4875445e-001
  3.5017794e-001
  3.4377224e-001
  3.4234875e-001
  3.3807829e-001
  3.3950178e-001
  3.3879004e-001
  3.4092527e-001
  3.3665480e-001
  3.3736655e-001
  3.3238434e-001
  3.3167260e-001
  3.3024911e-001
  3.2953737e-001
  3.2882562e-001
  3.2669039e-001
  3.2455516e-001
  3.2669039e-001
  3.2953737e-001
  3.2953737e-001
  3.3024911e-001
  3.2811388e-001
  3.2597865e-001
  3.2384342e-001
  3.2740214e-001
  3.3096085e-001
  3.3736655e-001
  3.3594306e-001
  3.3736655e-001
  3.3451957e-001
  3.3451957e-001
  3.3736655e-001
  3.3879004e-001
  3.4163701e-001
  3.4092527e-001
  3.4519573e-001
  3.4519573e-001
  3.4306050e-001
  3.4021352e-001
  3.4306050e-001
  3.4306050e-001
  3.4804270e-001
  3.5017794e-001
  3.5088968e-001
  3.5088968e-001
  3.5231317e-001
  3.5088968e-001
  3.5231317e-001
  3.5302491e-001
  3.5444840e-001
  3.5729537e-001
  3.6085409e-001
  3.5871886e-001
  3.5800712e-001
  3.5800712e-001
  3.5444840e-001
  3.5729537e-001
  3.5729537e-001
  3.6085409e-001
  3.6014235e-001
  3.6298932e-001
  3.6014235e-001
  3.6085409e-001
  3.5800712e-001
  3.6085409e-001
  3.6085409e-001
  3.6085409e-001
  3.6014235e-001
  3.6156584e-001
  3.6441281e-001
  3.6085409e-001
  3.6156584e-001
  3.6370107e-001
  3.6085409e-001
  3.5871886e-001
  3.6156584e-001
  3.6512456e-001
  3.6298932e-001
  3.6227758e-001
  3.6085409e-001
  3.5516014e-001
  3.5800712e-001
  3.5943060e-001
  3.5871886e-001
  3.6512456e-001
  3.6441281e-001
  3.6370107e-001
  3.6227758e-001
  3.6227758e-001
  3.6370107e-001
  3.6227758e-001
  3.6583630e-001
  3.7081851e-001
  3.7153025e-001
  3.7010676e-001
  3.6583630e-001
  3.6868327e-001
  3.6939502e-001
  3.7224199e-001
  3.7437722e-001
  3.7651246e-001
  3.8078292e-001
  3.7722420e-001
  3.7651246e-001
  3.7153025e-001
  3.7295374e-001
  3.7153025e-001
  3.7153025e-001
  3.7366548e-001
  3.7295374e-001
  3.7153025e-001
  3.6654804e-001
  3.6583630e-001
  3.6298932e-001
  3.6156584e-001
  3.6014235e-001
  3.6156584e-001
  3.6085409e-001
  3.6227758e-001
  3.6298932e-001
  3.6441281e-001
  3.5800712e-001
  3.5943060e-001
  3.5871886e-001
  3.6583630e-001
  3.6654804e-001
  3.6939502e-001
  3.6797153e-001
  3.7081851e-001
  3.6939502e-001
  3.6797153e-001
  3.7366548e-001
  3.8576512e-001
  3.9857651e-001
  4.1423488e-001
  4.3701068e-001
  4.6049822e-001
  4.7758007e-001
  4.8967972e-001
  4.8754448e-001
  4.6832740e-001
  4.3701068e-001
  4.0355872e-001
  3.8007117e-001
  3.6654804e-001
  3.6725979e-001
  3.7010676e-001
  3.7081851e-001
  3.6868327e-001
  3.6939502e-001
  3.6512456e-001
  3.6014235e-001
  3.5444840e-001
  3.5444840e-001
  3.5088968e-001
  3.5017794e-001
  3.4875445e-001
  3.4875445e-001
  3.5088968e-001
  3.5444840e-001
  3.5017794e-001
  3.5088968e-001
  3.4733096e-001
  3.5017794e-001
  3.4590747e-001
  3.4661922e-001
  3.4733096e-001
  3.4661922e-001
  3.5017794e-001
  3.4946619e-001
  3.4946619e-001
  3.4804270e-001
  3.4519573e-001
  3.4448399e-001
  3.4661922e-001
  3.4590747e-001
  3.4733096e-001
  3.4519573e-001
  3.4733096e-001
  3.4733096e-001
  3.4377224e-001
  3.4234875e-001
  3.4377224e-001
  3.4875445e-001
  3.5160142e-001
  3.4946619e-001
  3.4946619e-001
  3.4448399e-001
  3.4377224e-001
  3.4519573e-001
  3.4306050e-001
  3.4590747e-001
  3.5017794e-001
  3.4946619e-001
  3.4590747e-001
  3.4377224e-001
  3.4377224e-001
  3.3950178e-001
  3.4377224e-001
  3.4377224e-001
  3.4234875e-001
  3.4661922e-001
  3.4519573e-001
  3.4163701e-001
  3.4021352e-001
  3.3879004e-001
  3.3736655e-001
  3.3665480e-001
  3.3879004e-001
  3.3736655e-001
  3.3665480e-001
  3.3451957e-001
  3.2811388e-001
  3.2669039e-001
  3.2669039e-001
  3.2384342e-001
  3.2455516e-001
  3.2811388e-001
  3.2811388e-001
  3.2740214e-001
  3.2313167e-001
  3.1814947e-001
  3.2241993e-001
  3.1957295e-001
  3.2669039e-001
  3.3024911e-001
  3.2811388e-001
  3.3096085e-001
  3.3451957e-001
  3.3238434e-001
  3.3451957e-001
  3.3309609e-001
  3.3380783e-001
  3.3523132e-001
  3.3807829e-001
  3.4092527e-001
  3.4163701e-001
  3.3807829e-001
  3.3807829e-001
  3.3950178e-001
  3.3807829e-001
  3.4377224e-001
  3.4377224e-001
  3.4590747e-001
  3.4733096e-001
  3.4804270e-001
  3.4590747e-001
  3.4875445e-001
  3.4733096e-001
  3.4946619e-001
  3.5302491e-001
  3.5587189e-001
  3.5516014e-001
  3.5658363e-001
  3.5516014e-001
  3.5800712e-001
  3.5373665e-001
  3.6014235e-001
  3.5871886e-001
  3.5943060e-001
  3.6014235e-001
  3.6156584e-001
  3.6085409e-001
  3.5729537e-001
  3.5658363e-001
  3.6085409e-001
  3.5871886e-001
  3.6227758e-001
  3.6654804e-001
  3.6298932e-001
  3.6227758e-001
  3.5729537e-001
  3.5943060e-001
  3.6014235e-001
  3.6156584e-001
  3.6156584e-001
  3.6512456e-001
  3.6298932e-001
  3.6298932e-001
  3.6156584e-001
  3.6014235e-001
  3.6085409e-001
  3.6227758e-001
  3.6370107e-001
  3.6298932e-001
  3.6441281e-001
  3.6583630e-001
  3.6298932e-001
  3.6298932e-001
  3.6227758e-001
  3.6227758e-001
  3.6156584e-001
  3.6654804e-001
  3.6797153e-001
  3.6725979e-001
  3.6725979e-001
  3.6512456e-001
  3.6298932e-001
  3.6654804e-001
  3.6797153e-001
  3.7081851e-001
  3.7437722e-001
  3.7508897e-001
  3.7508897e-001
  3.7295374e-001
  3.7437722e-001
  3.7366548e-001
  3.7651246e-001
  3.7793594e-001
  3.7864769e-001
  3.7651246e-001
  3.8007117e-001
  3.7580071e-001
  3.7224199e-001
  3.7081851e-001
  3.7153025e-001
  3.6939502e-001
  3.6725979e-001
  3.6512456e-001
  3.6512456e-001
  3.6298932e-001
  3.5943060e-001
  3.6156584e-001
  3.6014235e-001
  3.6227758e-001
  3.6370107e-001
  3.6725979e-001
  3.6441281e-001
  3.6014235e-001
  3.6085409e-001
  3.6156584e-001
  3.6298932e-001
  3.6156584e-001
  3.6298932e-001
  3.6725979e-001
  3.7153025e-001
  3.7295374e-001
  3.7864769e-001
  3.8149466e-001
  3.9715302e-001
  4.1067616e-001
  4.2989324e-001
  4.4982206e-001
  4.6903915e-001
  4.7686833e-001
  4.7473310e-001
  4.5409253e-001
  4.2633452e-001
  3.9572954e-001
  3.7793594e-001
  3.7437722e-001
  3.7722420e-001
  3.7864769e-001
  3.8149466e-001
  3.7295374e-001
  3.7081851e-001
  3.6512456e-001
  3.6298932e-001
  3.6441281e-001
  3.6370107e-001
  3.6085409e-001
  3.6298932e-001
  3.6227758e-001
  3.6156584e-001
  3.6014235e-001
  3.5729537e-001
  3.5871886e-001
  3.6227758e-001
  3.6014235e-001
  3.6227758e-001
  3.6370107e-001
  3.6014235e-001
  3.5800712e-001
  3.5587189e-001
  3.6085409e-001
  3.6227758e-001
  3.6227758e-001
  3.6085409e-001
  3.6227758e-001
  3.6014235e-001
  3.5302491e-001
  3.5444840e-001
  3.5587189e-001
  3.6014235e-001
  3.6298932e-001
  3.6156584e-001
  3.6156584e-001
  3.5871886e-001
  3.5800712e-001
  3.5587189e-001
  3.5587189e-001
  3.5943060e-001
  3.5871886e-001
  3.6156584e-001
  3.6014235e-001
  3.6227758e-001
  3.5658363e-001
  3.5373665e-001
  3.5444840e-001
  3.5444840e-001
  3.5800712e-001
  3.5516014e-001
  3.5516014e-001
  3.5231317e-001
  3.4804270e-001
  3.4661922e-001
  3.4661922e-001
  3.4875445e-001
  3.4804270e-001
  3.4733096e-001
  3.4661922e-001
  3.4448399e-001
  3.4377224e-001
  3.4163701e-001
  3.4092527e-001
  3.3736655e-001
  3.3807829e-001
  3.3879004e-001
  3.4021352e-001
  3.3736655e-001
  3.3523132e-001
  3.3238434e-001
  3.2953737e-001
  3.3238434e-001
  3.3451957e-001
  3.3451957e-001
  3.3879004e-001
  3.3879004e-001
  3.3523132e-001
  3.3523132e-001
  3.3879004e-001
  3.4021352e-001
  3.4163701e-001
  3.4234875e-001
  3.4590747e-001
  3.4875445e-001
  3.4804270e-001
  3.4661922e-001
  3.4661922e-001
  3.4733096e-001
  3.4804270e-001
  3.5160142e-001
  3.5587189e-001
  3.5587189e-001
  3.5587189e-001
  3.5516014e-001
  3.5729537e-001
  3.5943060e-001
  3.5800712e-001
  3.5800712e-001
  3.6085409e-001
  3.6370107e-001
  3.6441281e-001
  3.6441281e-001
  3.6298932e-001
  3.6725979e-001
  3.6583630e-001
  3.6298932e-001
  3.6654804e-001
  3.6370107e-001
  3.6583630e-001
  3.6797153e-001
  3.6654804e-001
  3.6512456e-001
  3.6725979e-001
  3.6370107e-001
  3.6512456e-001
  3.7081851e-001
  3.6939502e-001
  3.7081851e-001
  3.7010676e-001
  3.6797153e-001
  3.6797153e-001
  3.6654804e-001
  3.7010676e-001
  3.7295374e-001
  3.7366548e-001
  3.7153025e-001
  3.7153025e-001
  3.7010676e-001
  3.7010676e-001
  3.6797153e-001
  3.6797153e-001
  3.7081851e-001
  3.7508897e-001
  3.7295374e-001
  3.7437722e-001
  3.7010676e-001
  3.7153025e-001
  3.6868327e-001
  3.7153025e-001
  3.7295374e-001
  3.7508897e-001
  3.7793594e-001
  3.7935943e-001
  3.7793594e-001
  3.7864769e-001
  3.8149466e-001
  3.8291815e-001
  3.8362989e-001
  3.8790036e-001
  3.8790036e-001
  3.8362989e-001
  3.8576512e-001
  3.8576512e-001
  3.8291815e-001
  3.8149466e-001
  3.8291815e-001
  3.8291815e-001
  3.8576512e-001
  3.8362989e-001
  3.8149466e-001
  3.7935943e-001
  3.7722420e-001
  3.7722420e-001
  3.7224199e-001
  3.7366548e-001
  3.7010676e-001
  3.7651246e-001
  3.7508897e-001
  3.7580071e-001
  3.7224199e-001
  3.7295374e-001
  3.6868327e-001
  3.7081851e-001
  3.7153025e-001
  3.7153025e-001
  3.7081851e-001
  3.7508897e-001
  3.7010676e-001
  3.7081851e-001
  3.7153025e-001
  3.7224199e-001
  3.7793594e-001
  3.8362989e-001
  3.9145907e-001
  4.0071174e-001
  4.1281139e-001
  4.2704626e-001
  4.3843416e-001
  4.5907473e-001
  4.6975089e-001
  4.7188612e-001
  4.6120996e-001
  4.3274021e-001
  4.0000000e-001
  3.7793594e-001
  3.6441281e-001
  3.6725979e-001
  3.7366548e-001
  3.8220641e-001
  3.8220641e-001
  3.8149466e-001
  3.7295374e-001
  3.6725979e-001
  3.6512456e-001
  3.6298932e-001
  3.6227758e-001
  3.6725979e-001
  3.6441281e-001
  3.6370107e-001
  3.6370107e-001
  3.6156584e-001
  3.6156584e-001
  3.6441281e-001
  3.6227758e-001
  3.6441281e-001
  3.6654804e-001
  3.6512456e-001
  3.6654804e-001
  3.6797153e-001
  3.6441281e-001
  3.6156584e-001
  3.6512456e-001
  3.6512456e-001
  3.6227758e-001
  3.6441281e-001
  3.6725979e-001
  3.6583630e-001
  3.6227758e-001
  3.6298932e-001
  3.6156584e-001
  3.6085409e-001
  3.6512456e-001
  3.6583630e-001
  3.6654804e-001
  3.6868327e-001
  3.6654804e-001
  3.6298932e-001
  3.6156584e-001
  3.6227758e-001
  3.6227758e-001
  3.6370107e-001
  3.6370107e-001
  3.6512456e-001
  3.6298932e-001
  3.6014235e-001
  3.5943060e-001
  3.5871886e-001
  3.5729537e-001
  3.5871886e-001
  3.6014235e-001
  3.5871886e-001
  3.5800712e-001
  3.5444840e-001
  3.5373665e-001
  3.5088968e-001
  3.5017794e-001
  3.5017794e-001
  3.4946619e-001
  3.5088968e-001
  3.4733096e-001
  3.4377224e-001
  3.4234875e-001
  3.4234875e-001
  3.3736655e-001
  3.3807829e-001
  3.3736655e-001
  3.4092527e-001
  3.4234875e-001
  3.4306050e-001
  3.4021352e-001
  3.4021352e-001
  3.4163701e-001
  3.4377224e-001
  3.4590747e-001
  3.4875445e-001
  3.5017794e-001
  3.5231317e-001
  3.5658363e-001
  3.5587189e-001
  3.5516014e-001
  3.5516014e-001
  3.5800712e-001
  3.5943060e-001
  3.5943060e-001
  3.6227758e-001
  3.6014235e-001
  3.5871886e-001
  3.6085409e-001
  3.6227758e-001
  3.6441281e-001
  3.6512456e-001
  3.6939502e-001
  3.6654804e-001
  3.6725979e-001
  3.6583630e-001
  3.6583630e-001
  3.6654804e-001
  3.6868327e-001
  3.7081851e-001
  3.7153025e-001
  3.7010676e-001
  3.7153025e-001
  3.6939502e-001
  3.6797153e-001
  3.6797153e-001
  3.7081851e-001
  3.7295374e-001
  3.7366548e-001
  3.7508897e-001
  3.7437722e-001
  3.7437722e-001
  3.7153025e-001
  3.7224199e-001
  3.7153025e-001
  3.7010676e-001
  3.7366548e-001
  3.7437722e-001
  3.7366548e-001
  3.7153025e-001
  3.6868327e-001
  3.6939502e-001
  3.7081851e-001
  3.6939502e-001
  3.6939502e-001
  3.7081851e-001
  3.7295374e-001
  3.7366548e-001
  3.7224199e-001
  3.7081851e-001
  3.6868327e-001
  3.7081851e-001
  3.7224199e-001
  3.7366548e-001
  3.7366548e-001
  3.7366548e-001
  3.7508897e-001
  3.7508897e-001
  3.7224199e-001
  3.7580071e-001
  3.7935943e-001
  3.8078292e-001
  3.8291815e-001
  3.8362989e-001
  3.8220641e-001
  3.8362989e-001
  3.8362989e-001
  3.8505338e-001
  3.8576512e-001
  3.8790036e-001
  3.8790036e-001
  3.8505338e-001
  3.8434164e-001
  3.8434164e-001
  3.8291815e-001
  3.8007117e-001
  3.8007117e-001
  3.8220641e-001
  3.7935943e-001
  3.7864769e-001
  3.7508897e-001
  3.7153025e-001
  3.7010676e-001
  3.6725979e-001
  3.6797153e-001
  3.7224199e-001
  3.7295374e-001
  3.7224199e-001
  3.7295374e-001
  3.7153025e-001
  3.7010676e-001
  3.6939502e-001
  3.7010676e-001
  3.7580071e-001
  3.7081851e-001
  3.7580071e-001
  3.7722420e-001
  3.8149466e-001
  3.8007117e-001
  3.8790036e-001
  3.9857651e-001
  4.0996441e-001
  4.2775801e-001
  4.4982206e-001
  4.6548043e-001
  4.7829181e-001
  4.7615658e-001
  4.6120996e-001
  4.3202847e-001
  4.0071174e-001
  3.7651246e-001
  3.6370107e-001
  3.6512456e-001
  3.6868327e-001
  3.7366548e-001
  3.7508897e-001
  3.7366548e-001
  3.7153025e-001
  3.6868327e-001
  3.7010676e-001
  3.6868327e-001
  3.6725979e-001
  3.6583630e-001
  3.6370107e-001
  3.5800712e-001
  3.6227758e-001
  3.6298932e-001
  3.6441281e-001
  3.6512456e-001
  3.6654804e-001
  3.6441281e-001
  3.6370107e-001
  3.6298932e-001
  3.6085409e-001
  3.6085409e-001
  3.6227758e-001
  3.6370107e-001
  3.6654804e-001
  3.6583630e-001
  3.6797153e-001
  3.6227758e-001
  3.6298932e-001
  3.6014235e-001
  3.6298932e-001
  3.6227758e-001
  3.6370107e-001
  3.6441281e-001
  3.6512456e-001
  3.6370107e-001
  3.6156584e-001
  3.5943060e-001
  3.6085409e-001
  3.6156584e-001
  3.6085409e-001
  3.6441281e-001
  3.6298932e-001
  3.6227758e-001
  3.5871886e-001
  3.5871886e-001
  3.5800712e-001
  3.6014235e-001
  3.6227758e-001
  3.6085409e-001
  3.5800712e-001
  3.5658363e-001
  3.5444840e-001
  3.5231317e-001
  3.5231317e-001
  3.5160142e-001
  3.5088968e-001
  3.5017794e-001
  3.4733096e-001
  3.4875445e-001
  3.4448399e-001
  3.4306050e-001
  3.4163701e-001
  3.3950178e-001
  3.4092527e-001
  3.4163701e-001
  3.4021352e-001
  3.4163701e-001
  3.3807829e-001
  3.3380783e-001
  3.3380783e-001
  3.3238434e-001
  3.3665480e-001
  3.3451957e-001
  3.3807829e-001
  3.3879004e-001
  3.3807829e-001
  3.3807829e-001
  3.4021352e-001
  3.3807829e-001
  3.4021352e-001
  3.4163701e-001
  3.4875445e-001
  3.4946619e-001
  3.4875445e-001
  3.5088968e-001
  3.4875445e-001
  3.4875445e-001
  3.4946619e-001
  3.5088968e-001
  3.5302491e-001
  3.5516014e-001
  3.5658363e-001
  3.5160142e-001
  3.5160142e-001
  3.5444840e-001
  3.5658363e-001
  3.6014235e-001
  3.6014235e-001
  3.6014235e-001
  3.6227758e-001
  3.6156584e-001
  3.5800712e-001
  3.6014235e-001
  3.6014235e-001
  3.6156584e-001
  3.6298932e-001
  3.6512456e-001
  3.6156584e-001
  3.6370107e-001
  3.6085409e-001
  3.6156584e-001
  3.6085409e-001
  3.6014235e-001
  3.6227758e-001
  3.6085409e-001
  3.6298932e-001
  3.6156584e-001
  3.6014235e-001
  3.5943060e-001
  3.6227758e-001
  3.6014235e-001
  3.6227758e-001
  3.6441281e-001
  3.6512456e-001
  3.6370107e-001
  3.6441281e-001
  3.6156584e-001
  3.6085409e-001
  3.6014235e-001
  3.6370107e-001
  3.6441281e-001
  3.6725979e-001
  3.6370107e-001
  3.6298932e-001
  3.6156584e-001
  3.6014235e-001
  3.5943060e-001
  3.6085409e-001
  3.6014235e-001
  3.6227758e-001
  3.6512456e-001
  3.6583630e-001
  3.6298932e-001
  3.6654804e-001
  3.6797153e-001
  3.6583630e-001
  3.7153025e-001
  3.7437722e-001
  3.7651246e-001
  3.7651246e-001
  3.7580071e-001
  3.7366548e-001
  3.7224199e-001
  3.7224199e-001
  3.7580071e-001
  3.7437722e-001
  3.7437722e-001
  3.7295374e-001
  3.7081851e-001
  3.6868327e-001
  3.6156584e-001
  3.5800712e-001
  3.5800712e-001
  3.5729537e-001
  3.5587189e-001
  3.5729537e-001
  3.5516014e-001
  3.5302491e-001
  3.5160142e-001
  3.5444840e-001
  3.5373665e-001
  3.5231317e-001
  3.5729537e-001
  3.5729537e-001
  3.5658363e-001
  3.5871886e-001
  3.5943060e-001
  3.5658363e-001
  3.5587189e-001
  3.5943060e-001
  3.6156584e-001
  3.6939502e-001
  3.8220641e-001
  3.9359431e-001
  4.0284698e-001
  4.2277580e-001
  4.4056940e-001
  4.5409253e-001
  4.5765125e-001
  4.4341637e-001
  4.1423488e-001
  3.8291815e-001
  3.5444840e-001
  3.4306050e-001
  3.4448399e-001
  3.5729537e-001
  3.6441281e-001
  3.6583630e-001
  3.6512456e-001
  3.5871886e-001
  3.5729537e-001
  3.5302491e-001
  3.5302491e-001
  3.4946619e-001
  3.5373665e-001
  3.5373665e-001
  3.5444840e-001
  3.5800712e-001
  3.5516014e-001
  3.5302491e-001
  3.5302491e-001
  3.5088968e-001
  3.5160142e-001
  3.4946619e-001
  3.5302491e-001
  3.5587189e-001
  3.5516014e-001
  3.5373665e-001
  3.4946619e-001
  3.5017794e-001
  3.5160142e-001
  3.4946619e-001
  3.5516014e-001
  3.5587189e-001
  3.5658363e-001
  3.5231317e-001
  3.5160142e-001
  3.5231317e-001
  3.4875445e-001
  3.4804270e-001
  3.5017794e-001
  3.5017794e-001
  3.4946619e-001
  3.5088968e-001
  3.4946619e-001
  3.4804270e-001
  3.4519573e-001
  3.4661922e-001
  3.4804270e-001
  3.5017794e-001
  3.4804270e-001
  3.4875445e-001
  3.4448399e-001
  3.4163701e-001
  3.4234875e-001
  3.4092527e-001
  3.4021352e-001
  3.4448399e-001
  3.4234875e-001
  3.4163701e-001
  3.3950178e-001
  3.3594306e-001
  3.3523132e-001
  3.3167260e-001
  3.2953737e-001
  3.3167260e-001
  3.3380783e-001
  3.3096085e-001
  3.3024911e-001
  3.2882562e-001
  3.2526690e-001
  3.2384342e-001
  3.2313167e-001
  3.2384342e-001
  3.2597865e-001
  3.2526690e-001
  3.2669039e-001
  3.2241993e-001
  3.2028470e-001
  3.2313167e-001
  3.1957295e-001
  3.2170819e-001
  3.2455516e-001
  3.2740214e-001
  3.2882562e-001
  3.3309609e-001
  3.2953737e-001
  3.3238434e-001
  3.3309609e-001
  3.3238434e-001
  3.3665480e-001
  3.4092527e-001
  3.4306050e-001
  3.4163701e-001
  3.3950178e-001
  3.3807829e-001
  3.3594306e-001
  3.4163701e-001
  3.4234875e-001
  3.4661922e-001
  3.4804270e-001
  3.4804270e-001
  3.4590747e-001
  3.4519573e-001
  3.4733096e-001
  3.4448399e-001
  3.4661922e-001
  3.5160142e-001
  3.5444840e-001
  3.5231317e-001
  3.5373665e-001
  3.4946619e-001
  3.5088968e-001
  3.4875445e-001
  3.5516014e-001
  3.5516014e-001
  3.5444840e-001
  3.5658363e-001
  3.5729537e-001
  3.5373665e-001
  3.5444840e-001
  3.5444840e-001
  3.5516014e-001
  3.5658363e-001
  3.5871886e-001
  3.6085409e-001
  3.5943060e-001
  3.5658363e-001
  3.5800712e-001
  3.5658363e-001
  3.5658363e-001
  3.5516014e-001
  3.5871886e-001
  3.6014235e-001
  3.6085409e-001
  3.5587189e-001
  3.5658363e-001
  3.5587189e-001
  3.5444840e-001
  3.5871886e-001
  3.5516014e-001
  3.6298932e-001
  3.6370107e-001
  3.6298932e-001
  3.6085409e-001
  3.6014235e-001
  3.6014235e-001
  3.6227758e-001
  3.6654804e-001
  3.6868327e-001
  3.6797153e-001
  3.7010676e-001
  3.6797153e-001
  3.6868327e-001
  3.6654804e-001
  3.6939502e-001
  3.7295374e-001
  3.7722420e-001
  3.7366548e-001
  3.7508897e-001
  3.7437722e-001
  3.7153025e-001
  3.6939502e-001
  3.6939502e-001
  3.6868327e-001
  3.7153025e-001
  3.7153025e-001
  3.6939502e-001
  3.6512456e-001
  3.6298932e-001
  3.6156584e-001
  3.5871886e-001
  3.5871886e-001
  3.5729537e-001
  3.6156584e-001
  3.6227758e-001
  3.6370107e-001
  3.6156584e-001
  3.6156584e-001
  3.6014235e-001
  3.6014235e-001
  3.6227758e-001
  3.6298932e-001
  3.6654804e-001
  3.6654804e-001
  3.6512456e-001
  3.6512456e-001
  3.6512456e-001
  3.7153025e-001
  3.7935943e-001
  3.9572954e-001
  4.1138790e-001
  4.2775801e-001
  4.4128114e-001
  4.6049822e-001
  4.6334520e-001
  4.4982206e-001
  4.2491103e-001
  3.9359431e-001
  3.6370107e-001
  3.4946619e-001
  3.5160142e-001
  3.6014235e-001
  3.6512456e-001
  3.6654804e-001
  3.6512456e-001
  3.6370107e-001
  3.4804270e-001
  3.9518407e-001
  3.8491278e-001
  3.5088968e-001
  3.2865127e-001
  3.2865127e-001
  3.7840171e-001
  3.3396210e-001
  3.6381043e-001
  3.5160045e-001
  3.5986665e-001
  3.6002333e-001
  3.6213278e-001
  3.6063861e-001
  3.6632964e-001
  3.6297433e-001
  3.6551046e-001
  3.6719743e-001
  3.6478555e-001
  3.6929630e-001
  3.6599022e-001
  3.6488227e-001
  3.6861643e-001
  3.6975061e-001
  3.6953683e-001
  3.7411892e-001
  3.7595203e-001
  3.7934622e-001
  3.8268002e-001
  3.7903186e-001
  3.7842834e-001
  3.7093727e-001
  3.6549759e-001
  3.6969139e-001
  3.6811578e-001
  3.6842996e-001
  3.7313233e-001
  3.8069285e-001
  4.0642918e-001
  4.6333641e-001
  4.3309886e-001
  3.6527430e-001
  3.7519998e-001
  3.6646638e-001
  3.6337243e-001
  3.6480452e-001
  3.6165974e-001
  3.6383506e-001
  3.6189941e-001
  3.6185009e-001
  3.6377165e-001
  3.5871630e-001
  3.6270626e-001
  3.6333906e-001
  3.5922072e-001
  3.6223243e-001
  3.6064213e-001
  3.5605623e-001
  3.5652990e-001
  3.5414499e-001
  3.5140399e-001
  3.4850083e-001
  3.4009641e-001
  3.4010701e-001
  3.3759634e-001
  3.3183141e-001
  3.3481546e-001
  3.3916362e-001
  3.4040596e-001
  3.4587002e-001
  3.4736327e-001
  3.5009164e-001
  3.5234937e-001
  3.5412501e-001
  3.5826920e-001
  3.6167661e-001
  3.6018224e-001
  3.6179897e-001
  3.6543259e-001
  3.6238372e-001
  3.6429257e-001
  3.6658694e-001
  3.6562803e-001
  3.6909654e-001
  3.6617900e-001
  3.6380135e-001
  3.7042222e-001
  3.6578642e-001
  3.6675488e-001
  3.7310641e-001
  3.7329555e-001
  3.7702995e-001
  3.7833209e-001
  3.7366341e-001
  3.7435545e-001
  3.6867286e-001
  3.5758355e-001
  3.6392965e-001
  3.6045709e-001
  3.6224063e-001
  3.6634138e-001
  3.6569001e-001
  3.8177865e-001
  4.2024354e-001
  4.7910660e-001
  4.5003836e-001
  3.7507032e-001
  3.7371167e-001
  3.6849655e-001
  3.5763907e-001
  3.5913141e-001
  3.6221750e-001
  3.5556615e-001
  3.5767664e-001
  3.6029995e-001
  3.5530533e-001
  3.5846834e-001
  3.5932891e-001
  3.5590879e-001
  3.5767267e-001
  3.5491597e-001
  3.5203231e-001
  3.5499753e-001
  3.5123075e-001
  3.4956985e-001
  3.4464439e-001
  3.3872206e-001
  3.3795457e-001
  3.3145034e-001
  3.2770391e-001
  3.2659341e-001
  3.2959430e-001
  3.2496142e-001
  3.3492727e-001
  3.3550373e-001
  3.3809485e-001
  3.4422929e-001
  3.4160438e-001
  3.4672915e-001
  3.5169473e-001
  3.5130964e-001
  3.5755417e-001
  3.5813490e-001
  3.5614792e-001
  3.6112501e-001
  3.5992041e-001
  3.6004334e-001
  3.6160632e-001
  3.6205482e-001
  3.6059668e-001
  3.6336117e-001
  3.5736288e-001
  3.6060695e-001
  3.6405907e-001
  3.6176124e-001
  3.6933623e-001
  3.6820634e-001
  3.7129723e-001
  3.7879270e-001
  3.7285053e-001
  3.7222583e-001
  3.7062030e-001
  3.6264101e-001
  3.6057259e-001
  3.6271865e-001
  3.5895404e-001
  3.6685469e-001
  3.6855988e-001
  3.7486646e-001
  4.1498928e-001
  4.7936456e-001
  4.6673899e-001
  3.8023757e-001
  3.6830830e-001
  3.6814073e-001
  3.5603866e-001
  3.4935739e-001
  3.5072550e-001
  3.5058770e-001
  3.4641729e-001
  3.4787349e-001
  3.4883843e-001
  3.4487266e-001
  3.4682789e-001
  3.4503641e-001
  3.4486955e-001
  3.5040076e-001
  3.4332931e-001
  3.4683366e-001
  3.4677193e-001
  3.4118185e-001
  3.4458322e-001
  3.4234573e-001
  3.3717276e-001
  3.3764911e-001
  3.2971269e-001
  3.2441853e-001
  3.2761104e-001
  3.2053291e-001
  3.2469483e-001
  3.3196884e-001
  3.3289090e-001
  3.3584198e-001
  3.4018449e-001
  3.3812030e-001
  3.4428250e-001
  3.4706882e-001
  3.4805351e-001
  3.5448835e-001
  3.5602493e-001
  3.5726271e-001
  3.6086326e-001
  3.5798726e-001
  3.6046629e-001
  3.6345807e-001
  3.5830679e-001
  3.6293171e-001
  3.6225199e-001
  3.6080272e-001
  3.6379322e-001
  3.6373792e-001
  3.6167975e-001
  3.6722030e-001
  3.6487259e-001
  3.6780102e-001
  3.7487382e-001
  3.7335772e-001
  3.7741464e-001
  3.7728948e-001
  3.7131626e-001
  3.6761089e-001
  3.6193884e-001
  3.6087126e-001
  3.6464909e-001
  3.6088210e-001
  3.6249857e-001
  3.6942938e-001
  3.8483848e-001
  4.2884491e-001
  4.7842096e-001
  4.2466147e-001
  3.7330600e-001
  3.7958179e-001
  3.6500084e-001
  3.6311954e-001
  3.6154129e-001
  3.5873515e-001
  3.6150583e-001
  3.6010162e-001
  3.5866298e-001
  3.6286843e-001
  3.5492682e-001
  3.5910899e-001
  3.6140032e-001
  3.5572974e-001
  3.5989410e-001
  3.5938508e-001
  3.5407103e-001
  3.5617817e-001
  3.4857084e-001
  3.4725374e-001
  3.4657435e-001
  3.4110733e-001
  3.3842645e-001
  3.3737042e-001
  3.3072761e-001
  3.3589363e-001
  3.3679463e-001
  3.3876373e-001
  3.4616059e-001
  3.4678420e-001
  3.4883988e-001
  3.5566682e-001
  3.5652762e-001
  3.5954742e-001
  3.6341147e-001
  3.6528759e-001
  3.6435674e-001
  3.6669188e-001
  3.6490769e-001
  3.6833892e-001
  3.6960331e-001
  3.6768802e-001
  3.7298391e-001
  3.6968965e-001
  3.6909694e-001
  3.7382590e-001
  3.6985431e-001
  3.7295905e-001
  3.7817939e-001
  3.8043785e-001
  3.8627279e-001
  3.8500090e-001
  3.8247255e-001
  3.8363784e-001
  3.7992960e-001
  3.7301293e-001
  3.7412562e-001
  3.7345839e-001
  3.6968960e-001
  3.7242517e-001
  3.7053397e-001
  3.7701542e-001
  4.0102742e-001
  4.4099587e-001
  4.7187324e-001
  4.0205701e-001
  3.6547932e-001
  3.8392333e-001
  3.6692149e-001
  3.6417234e-001
  3.6377049e-001
  3.6196372e-001
  3.6430995e-001
  3.6631445e-001
  3.6375764e-001
  3.6398231e-001
  3.6508639e-001
  3.6109675e-001
  3.6593249e-001
  3.6584767e-001
  3.6128502e-001
  3.6433039e-001
  3.6065694e-001
  3.5794034e-001
  3.5887031e-001
  3.5270020e-001
  3.4990107e-001
  3.4754337e-001
  3.3966684e-001
  3.3874347e-001
  3.4163347e-001
  3.4126622e-001
  3.4824718e-001
  3.5456302e-001
  3.5602095e-001
  3.6012043e-001
  3.5977714e-001
  3.6394375e-001
  3.6753294e-001
  3.6553606e-001
  3.7023187e-001
  3.7013718e-001
  3.6855003e-001
  3.7395344e-001
  3.7341871e-001
  3.7106520e-001
  3.7326653e-001
  3.7020909e-001
  3.6906075e-001
  3.7240096e-001
  3.7067104e-001
  3.7130687e-001
  3.7447025e-001
  3.7385779e-001
  3.8090521e-001
  3.8287254e-001
  3.8474278e-001
  3.8698130e-001
  3.8303297e-001
  3.8065793e-001
  3.7807530e-001
  3.6880689e-001
  3.7069380e-001
  3.7235721e-001
  3.6975162e-001
  3.7381000e-001
  3.7890082e-001
  3.9698362e-001
  4.4810951e-001
  4.7624284e-001
  4.0110060e-001
  3.6321844e-001
  3.7538744e-001
  3.6907490e-001
  3.6769218e-001
  3.6049940e-001
  3.6424419e-001
  3.6491249e-001
  3.6085511e-001
  3.6390678e-001
  3.6571646e-001
  3.6102021e-001
  3.6380031e-001
  3.6319331e-001
  3.5977772e-001
  3.6334655e-001
  3.5922522e-001
  3.5994139e-001
  3.5876283e-001
  3.5247316e-001
  3.5068387e-001
  3.4691908e-001
  3.4095730e-001
  3.4107482e-001
  3.3757491e-001
  3.3301008e-001
  3.3747064e-001
  3.3829864e-001
  3.4020320e-001
  3.4907538e-001
  3.4866310e-001
  3.5127244e-001
  3.5415662e-001
  3.5355599e-001
  3.6083765e-001
  3.5998573e-001
  3.6023927e-001
  3.6342503e-001
  3.6142145e-001
  3.6074500e-001
  3.6169575e-001
  3.6003941e-001
  3.6234667e-001
  3.6441700e-001
  3.6058571e-001
  3.6452432e-001
  3.6314235e-001
  3.5920836e-001
  3.6259749e-001
  3.6503990e-001
  3.6797498e-001
  3.7597771e-001
  3.7370779e-001
  3.7347095e-001
  3.7351637e-001
  3.6215219e-001
  3.5673927e-001
  3.5472245e-001
  3.5262809e-001
  3.5521490e-001
  3.5871433e-001
  3.5582629e-001
  3.7089832e-001
  4.0481110e-001
  4.5473993e-001
  4.1437936e-001
  3.4339379e-001
  3.6358221e-001
  3.5997042e-001
  3.5170746e-001
  3.5357886e-001
  3.5569359e-001
  3.5036578e-001
  3.5317277e-001
  3.5305523e-001
  3.4976487e-001
  3.5537439e-001
  3.5197483e-001
  3.4866545e-001
  3.5044778e-001
  3.4720969e-001
  3.4772095e-001
  3.4749483e-001
  3.4077930e-001
  3.4253942e-001
  3.3933299e-001
  3.3153076e-001
  3.3194096e-001
  3.2791057e-001
  3.2316749e-001
  3.2561104e-001
  3.2160357e-001
  3.2162551e-001
  3.2966341e-001
  3.3111838e-001
  3.3699194e-001
  3.4155343e-001
  3.3743332e-001
  3.4608498e-001
  3.4658435e-001
  3.4557186e-001
  3.5287258e-001
  3.5065421e-001
  3.5243782e-001
  3.5641170e-001
  3.5382043e-001
  3.5689441e-001
  3.5927109e-001
  3.5582332e-001
  3.5818690e-001
  3.5803999e-001
  3.5464065e-001
  3.6141347e-001
  3.6114559e-001
  3.6225700e-001
  3.6944699e-001
  3.6711955e-001
  3.7242997e-001
  3.7511745e-001
  3.6941439e-001
  3.7046982e-001
  3.6633424e-001
  3.5839930e-001
  3.6046539e-001
  3.6238147e-001
  3.5982658e-001
  3.6598223e-001
  3.6396374e-001
  3.8099393e-001
  4.2723267e-001
  4.6183260e-001
  3.9258749e-001
  3.4981338e-001
  3.6871553e-001
  3.5277180e-001
  3.5086687e-001
  3.4772325e-001
  3.5529089e-001
  3.5688527e-001
  3.5625925e-001
  3.6207673e-001
  3.6068851e-001
  3.6125456e-001
  3.6588375e-001
  3.6297433e-001
  3.6551046e-001
  3.6719743e-001
  3.6478555e-001
  3.6929630e-001
  3.6599022e-001
  3.6488227e-001
  3.6861643e-001
  3.6975061e-001
  3.6953683e-001
  3.7411892e-001
  3.7595203e-001
  3.7934622e-001
  3.8268002e-001
  3.7903186e-001
  3.7842834e-001
  3.7093727e-001
  3.6549759e-001
  3.6969139e-001
  3.6811578e-001
  3.6842996e-001
  3.7313233e-001
  3.8069285e-001
  4.0642918e-001
  4.6333641e-001
  4.3309886e-001
  3.6527430e-001
  3.7519998e-001
  3.6646638e-001
  3.6337243e-001
  3.6480452e-001
  3.6165974e-001
  3.6383506e-001
  3.6189941e-001
  3.6185009e-001
  3.6377165e-001
  3.5871630e-001
  3.6270626e-001
  3.6333906e-001
  3.5922072e-001
  3.6223243e-001
  3.6064213e-001
  3.5605623e-001
  3.5652990e-001
  3.5414499e-001
  3.5140399e-001
  3.4850083e-001
  3.4009641e-001
  3.4010701e-001
  3.3759634e-001
  3.3183141e-001
  3.3481546e-001
  3.3916362e-001
  3.4040596e-001
  3.4587002e-001
  3.4736327e-001
  3.5009164e-001
  3.5234937e-001
  3.5412501e-001
  3.5826920e-001
  3.6167661e-001
  3.6018224e-001
  3.6179897e-001
  3.6543259e-001
  3.6238372e-001
  3.6429257e-001
  3.6658694e-001
  3.6562803e-001
  3.6909654e-001
  3.6617900e-001
  3.6380135e-001
  3.7042222e-001
  3.6578642e-001
  3.6675488e-001
  3.7310641e-001
  3.7329555e-001
  3.7702995e-001
  3.7833209e-001
  3.7366341e-001
  3.7435545e-001
  3.6867286e-001
  3.5758355e-001
  3.6392965e-001
  3.6045709e-001
  3.6224063e-001
  3.6634138e-001
  3.6569001e-001
  3.8177865e-001
  4.2024354e-001
  4.7910660e-001
  4.5003836e-001
  3.7507032e-001
  3.7371167e-001
  3.6849655e-001
  3.5763907e-001
  3.5913141e-001
  3.6221750e-001
  3.5556615e-001
  3.5767664e-001
  3.6029995e-001
  3.5530533e-001
  3.5846834e-001
  3.5932891e-001
  3.5590879e-001
  3.5767267e-001
  3.5491597e-001
  3.5203231e-001
  3.5499753e-001
  3.5123075e-001
  3.4956985e-001
  3.4464439e-001
  3.3872206e-001
  3.3795457e-001
  3.3145034e-001
  3.2770391e-001
  3.2659341e-001
  3.2959430e-001
  3.2496142e-001
  3.3492727e-001
  3.3550373e-001
  3.3809485e-001
  3.4422929e-001
  3.4160438e-001
  3.4672915e-001
  3.5169473e-001
  3.5130964e-001
  3.5755417e-001
  3.5813490e-001
  3.5614792e-001
  3.6112501e-001
  3.5992041e-001
  3.6004334e-001
  3.6160632e-001
  3.6205482e-001
  3.6059668e-001
  3.6336117e-001
  3.5736288e-001
  3.6060695e-001
  3.6405907e-001
  3.6176124e-001
  3.6933623e-001
  3.6820634e-001
  3.7129723e-001
  3.7879270e-001
  3.7285053e-001
  3.7222583e-001
  3.7062030e-001
  3.6284573e-001
  3.6050704e-001
  3.6313287e-001
  3.5857628e-001
  3.6770576e-001
  3.6753071e-001
  3.7674784e-001
  4.1207496e-001
  4.8585969e-001
  4.4022408e-001
  4.4022408e-001
  3.7840171e-001
  3.3396210e-001
  3.6381043e-001
  3.5160045e-001
  3.5986665e-001
  3.6002333e-001
  3.6213278e-001
  3.6063861e-001
  3.6632964e-001
  3.6297433e-001
  3.6551046e-001
  3.6719743e-001
  3.6478555e-001
  3.6929630e-001
  3.6599022e-001
  3.6488227e-001
  3.6861643e-001
  3.6975061e-001
  3.6953683e-001
  3.7411892e-001
  3.7595203e-001
  3.7934622e-001
  3.8268002e-001
  3.7903186e-001
  3.7842834e-001
  3.7093727e-001
  3.6549759e-001
  3.6969139e-001
  3.6811578e-001
  3.6842996e-001
  3.7313233e-001
  3.8069285e-001
  4.0642918e-001
  4.6333641e-001
  4.3309886e-001
  3.6527430e-001
  3.7519998e-001
  3.6646638e-001
  3.6337243e-001
  3.6480452e-001
  3.6165974e-001
  3.6383506e-001
  3.6189941e-001
  3.6185009e-001
  3.6377165e-001
  3.5871630e-001
  3.6270626e-001
  3.6333906e-001
  3.5922072e-001
  3.6223243e-001
  3.6064213e-001
  3.5605623e-001
  3.5652990e-001
  3.5414499e-001
  3.5140399e-001
  3.4850083e-001
  3.4009641e-001
  3.4010701e-001
  3.3759634e-001
  3.3183141e-001
  3.3481546e-001
  3.3916362e-001
  3.4040596e-001
  3.4587002e-001
  3.4736327e-001
  3.5009164e-001
  3.5234937e-001
  3.5412501e-001
  3.5826920e-001
  3.6167661e-001
  3.6018224e-001
  3.6179897e-001
  3.6543259e-001
  3.6238372e-001
  3.6429257e-001
  3.6658694e-001
  3.6562803e-001
  3.6909654e-001
  3.6617900e-001
  3.6380135e-001
  3.7042222e-001
  3.6578642e-001
  3.6675488e-001
  3.7310641e-001
  3.7329555e-001
  3.7702995e-001
  3.7833209e-001
  3.7366341e-001
  3.7435545e-001
  3.6867286e-001
  3.5758355e-001
  3.6392965e-001
  3.6045709e-001
  3.6224063e-001
  3.6634138e-001
  3.6569001e-001
  3.8177865e-001
  4.2024354e-001
  4.7910660e-001
  4.5003836e-001
  3.7507032e-001
  3.7371167e-001
  3.6849655e-001
  3.5763907e-001
  3.5913141e-001
  3.6221750e-001
  3.5556615e-001
  3.5767664e-001
  3.6029995e-001
  3.5530533e-001
  3.5846834e-001
  3.5932891e-001
  3.5590879e-001
  3.5767267e-001
  3.5491597e-001
  3.5203231e-001
  3.5499753e-001
  3.5123075e-001
  3.4956985e-001
  3.4464439e-001
  3.3872206e-001
  3.3795457e-001
  3.3145034e-001
  3.2770391e-001
  3.2659341e-001
  3.2959430e-001
  3.2496142e-001
  3.3492727e-001
  3.3550373e-001
  3.3809485e-001
  3.4422929e-001
  3.4160438e-001
  3.4672915e-001
  3.5169473e-001
  3.5130964e-001
  3.5755417e-001
  3.5813490e-001
  3.5614792e-001
  3.6112501e-001
  3.5992041e-001
  3.6004334e-001
  3.6160632e-001
  3.6205482e-001
  3.6059668e-001
  3.6336117e-001
  3.5736288e-001
  3.6060695e-001
  3.6405907e-001
  3.6176124e-001
  3.6933623e-001
  3.6820634e-001
  3.7129723e-001
  3.7879270e-001
  3.7285053e-001
  3.7222583e-001
  3.7062030e-001
  3.6264101e-001
  3.6057259e-001
  3.6271865e-001
  3.5895404e-001
  3.6685469e-001
  3.6855988e-001
  3.7486646e-001
  4.1498928e-001
  4.7936456e-001
  4.6673899e-001
  3.8023757e-001
  3.6830830e-001
  3.6814073e-001
  3.5603866e-001
  3.4935739e-001
  3.5072550e-001
  3.5058770e-001
  3.4641729e-001
  3.4787349e-001
  3.4883843e-001
  3.4487266e-001
  3.4682789e-001
  3.4503641e-001
  3.4486955e-001
  3.5040076e-001
  3.4332931e-001
  3.4683366e-001
  3.4677193e-001
  3.4118185e-001
  3.4458322e-001
  3.4234573e-001
  3.3717276e-001
  3.3764911e-001
  3.2971269e-001
  3.2441853e-001
  3.2761104e-001
  3.2053291e-001
  3.2469483e-001
  3.3196884e-001
  3.3289090e-001
  3.3584198e-001
  3.4018449e-001
  3.3812030e-001
  3.4428250e-001
  3.4706882e-001
  3.4805351e-001
  3.5448835e-001
  3.5602493e-001
  3.5726271e-001
  3.6086326e-001
  3.5798726e-001
  3.6046629e-001
  3.6345807e-001
  3.5830679e-001
  3.6293171e-001
  3.6225199e-001
  3.6080272e-001
  3.6379322e-001
  3.6373792e-001
  3.6167975e-001
  3.6722030e-001
  3.6487259e-001
  3.6780102e-001
  3.7487382e-001
  3.7335772e-001
  3.7741464e-001
  3.7728948e-001
  3.7131626e-001
  3.6761089e-001
  3.6193884e-001
  3.6087126e-001
  3.6464909e-001
  3.6088210e-001
  3.6249857e-001
  3.6942938e-001
  3.8483848e-001
  4.2884491e-001
  4.7842096e-001
  4.2466147e-001
  3.7330600e-001
  3.7958179e-001
  3.6500084e-001
  3.6311954e-001
  3.6154129e-001
  3.5873515e-001
  3.6150583e-001
  3.6010162e-001
  3.5866298e-001
  3.6286843e-001
  3.5492682e-001
  3.5910899e-001
  3.6140032e-001
  3.5572974e-001
  3.5989410e-001
  3.5938508e-001
  3.5407103e-001
  3.5617817e-001
  3.4857084e-001
  3.4725374e-001
  3.4657435e-001
  3.4110733e-001
  3.3842645e-001
  3.3737042e-001
  3.3072761e-001
  3.3589363e-001
  3.3679463e-001
  3.3876373e-001
  3.4616059e-001
  3.4678420e-001
  3.4883988e-001
  3.5566682e-001
  3.5652762e-001
  3.5954742e-001
  3.6341147e-001
  3.6528759e-001
  3.6435674e-001
  3.6669188e-001
  3.6490769e-001
  3.6833892e-001
  3.6960331e-001
  3.6768802e-001
  3.7298391e-001
  3.6968965e-001
  3.6909694e-001
  3.7382590e-001
  3.6985431e-001
  3.7295905e-001
  3.7817939e-001
  3.8043785e-001
  3.8627279e-001
  3.8500090e-001
  3.8247255e-001
  3.8363784e-001
  3.7992960e-001
  3.7301293e-001
  3.7412562e-001
  3.7345839e-001
  3.6968960e-001
  3.7242517e-001
  3.7053397e-001
  3.7701542e-001
  4.0102742e-001
  4.4099587e-001
  4.7187324e-001
  4.0205701e-001
  3.6547932e-001
  3.8392333e-001
  3.6692149e-001
  3.6417234e-001
  3.6377049e-001
  3.6196372e-001
  3.6430995e-001
  3.6631445e-001
  3.6375764e-001
  3.6398231e-001
  3.6508639e-001
  3.6109675e-001
  3.6593249e-001
  3.6584767e-001
  3.6128502e-001
  3.6433039e-001
  3.6065694e-001
  3.5794034e-001
  3.5887031e-001
  3.5270020e-001
  3.4990107e-001
  3.4754337e-001
  3.3966684e-001
  3.3874347e-001
  3.4163347e-001
  3.4126622e-001
  3.4824718e-001
  3.5456302e-001
  3.5602095e-001
  3.6012043e-001
  3.5977714e-001
  3.6394375e-001
  3.6753294e-001
  3.6553606e-001
  3.7023187e-001
  3.7013718e-001
  3.6855003e-001
  3.7395344e-001
  3.7341871e-001
  3.7106520e-001
  3.7326653e-001
  3.7020909e-001
  3.6906075e-001
  3.7240096e-001
  3.7067104e-001
  3.7130687e-001
  3.7447025e-001
  3.7385779e-001
  3.8090521e-001
  3.8287254e-001
  3.8474278e-001
  3.8698130e-001
  3.8303297e-001
  3.8065793e-001
  3.7807530e-001
  3.6880689e-001
  3.7069380e-001
  3.7235721e-001
  3.6975162e-001
  3.7381000e-001
  3.7890082e-001
  3.9698362e-001
  4.4810951e-001
  4.7624284e-001
  4.0110060e-001
  3.6321844e-001
  3.7538744e-001
  3.6907490e-001
  3.6769218e-001
  3.6049940e-001
  3.6424419e-001
  3.6491249e-001
  3.6085511e-001
  3.6390678e-001
  3.6571646e-001
  3.6102021e-001
  3.6380031e-001
  3.6319331e-001
  3.5977772e-001
  3.6334655e-001
  3.5922522e-001
  3.5994139e-001
  3.5876283e-001
  3.5247316e-001
  3.5068387e-001
  3.4691908e-001
  3.4095730e-001
  3.4107482e-001
  3.3757491e-001
  3.3301008e-001
  3.3747064e-001
  3.3829864e-001
  3.4020320e-001
  3.4907538e-001
  3.4866310e-001
  3.5127244e-001
  3.5415662e-001
  3.5355599e-001
  3.6083765e-001
  3.5998573e-001
  3.6023927e-001
  3.6342503e-001
  3.6142145e-001
  3.6074500e-001
  3.6169575e-001
  3.6003941e-001
  3.6234667e-001
  3.6441700e-001
  3.6058571e-001
  3.6452432e-001
  3.6314235e-001
  3.5920836e-001
  3.6259749e-001
  3.6503990e-001
  3.6797498e-001
  3.7597771e-001
  3.7370779e-001
  3.7347095e-001
  3.7351637e-001
  3.6215219e-001
  3.5673927e-001
  3.5472245e-001
  3.5262809e-001
  3.5521490e-001
  3.5871433e-001
  3.5582629e-001
  3.7089832e-001
  4.0481110e-001
  4.5473993e-001
  4.1437936e-001
  3.4339379e-001
  3.6358221e-001
  3.5997042e-001
  3.5170746e-001
  3.5357886e-001
  3.5569359e-001
  3.5036578e-001
  3.5317277e-001
  3.5305523e-001
  3.4976487e-001
  3.5537439e-001
  3.5197483e-001
  3.4866545e-001
  3.5044778e-001
  3.4720969e-001
  3.4772095e-001
  3.4749483e-001
  3.4077930e-001
  3.4253942e-001
  3.3933299e-001
  3.3153076e-001
  3.3194096e-001
  3.2791057e-001
  3.2316749e-001
  3.2561104e-001
  3.2160357e-001
  3.2162551e-001
  3.2966341e-001
  3.3111838e-001
  3.3699194e-001
  3.4155343e-001
  3.3743332e-001
  3.4608498e-001
  3.4658435e-001
  3.4557186e-001
  3.5287258e-001
  3.5065421e-001
  3.5243782e-001
  3.5641170e-001
  3.5382043e-001
  3.5689441e-001
  3.5927109e-001
  3.5582332e-001
  3.5818690e-001
  3.5803999e-001
  3.5464065e-001
  3.6141347e-001
  3.6114559e-001
  3.6225700e-001
  3.6944699e-001
  3.6711955e-001
  3.7242997e-001
  3.7511745e-001
  3.6941439e-001
  3.7046982e-001
  3.6633424e-001
  3.5839930e-001
  3.6046539e-001
  3.6238147e-001
  3.5982658e-001
  3.6598223e-001
  3.6396374e-001
  3.8099393e-001
  4.2723267e-001
  4.6183260e-001
  3.9258749e-001
  3.4981338e-001
  3.6871553e-001
  3.5277180e-001
  3.5086687e-001
  3.4772325e-001
  3.5529089e-001
  3.5688527e-001
  3.5625925e-001
  3.6207673e-001
  3.6068851e-001
  3.6125456e-001
  3.6588375e-001
  3.6297433e-001
  3.6551046e-001
  3.6719743e-001
  3.6478555e-001
  3.6929630e-001
  3.6599022e-001
  3.6488227e-001
  3.6861643e-001
  3.6975061e-001
  3.6953683e-001
  3.7411892e-001
  3.7595203e-001
  3.7934622e-001
  3.8268002e-001
  3.7903186e-001
  3.7842834e-001
  3.7093727e-001
  3.6549759e-001
  3.6969139e-001
  3.6811578e-001
  3.6842996e-001
  3.7313233e-001
  3.8069285e-001
  4.0642918e-001
  4.6333641e-001
  4.3309886e-001
  3.6527430e-001
  3.7519998e-001
  3.6646638e-001
  3.6337243e-001
  3.6480452e-001
  3.6165974e-001
  3.6383506e-001
  3.6189941e-001
  3.6185009e-001
  3.6377165e-001
  3.5871630e-001
  3.6270626e-001
  3.6333906e-001
  3.5922072e-001
  3.6223243e-001
  3.6064213e-001
  3.5605623e-001
  3.5652990e-001
  3.5414499e-001
  3.5140399e-001
  3.4850083e-001
  3.4009641e-001
  3.4010701e-001
  3.3759634e-001
  3.3183141e-001
  3.3481546e-001
  3.3916362e-001
  3.4040596e-001
  3.4587002e-001
  3.4736327e-001
  3.5009164e-001
  3.5234937e-001
  3.5412501e-001
  3.5826920e-001
  3.6167661e-001
  3.6018224e-001
  3.6179897e-001
  3.6543259e-001
  3.6238372e-001
  3.6429257e-001
  3.6658694e-001
  3.6562803e-001
  3.6909654e-001
  3.6617900e-001
  3.6380135e-001
  3.7042222e-001
  3.6578642e-001
  3.6675488e-001
  3.7310641e-001
  3.7329555e-001
  3.7702995e-001
  3.7833209e-001
  3.7366341e-001
  3.7435545e-001
  3.6867286e-001
  3.5758355e-001
  3.6392965e-001
  3.6045709e-001
  3.6224063e-001
  3.6634138e-001
  3.6569001e-001
  3.8177865e-001
  4.2024354e-001
  4.7910660e-001
  4.5003836e-001
  3.7507032e-001
  3.7371167e-001
  3.6849655e-001
  3.5763907e-001
  3.5913141e-001
  3.6221750e-001
  3.5556615e-001
  3.5767664e-001
  3.6029995e-001
  3.5530533e-001
  3.5846834e-001
  3.5932891e-001
  3.5590879e-001
  3.5767267e-001
  3.5491597e-001
  3.5203231e-001
  3.5499753e-001
  3.5123075e-001
  3.4956985e-001
  3.4464439e-001
  3.3872206e-001
  3.3795457e-001
  3.3145034e-001
  3.2770391e-001
  3.2659341e-001
  3.2959430e-001
  3.2496142e-001
  3.3492727e-001
  3.3550373e-001
  3.3809485e-001
  3.4422929e-001
  3.4160438e-001
  3.4672915e-001
  3.5169473e-001
  3.5130964e-001
  3.5755417e-001
  3.5813490e-001
  3.5614792e-001
  3.6112501e-001
  3.5992041e-001
  3.6004334e-001
  3.6160632e-001
  3.6205482e-001
  3.6059668e-001
  3.6336117e-001
  3.5736288e-001
  3.6060695e-001
  3.6405907e-001
  3.6176124e-001
  3.6933623e-001
  3.6820634e-001
  3.7129723e-001
  3.7879270e-001
  3.7285053e-001
  3.7222583e-001
  3.7062030e-001
  3.6284573e-001
  3.6050704e-001
  3.6313287e-001
  3.5857628e-001
  3.6770576e-001
  3.6753071e-001
  3.7674784e-001
  4.1207496e-001
  4.8585969e-001
  4.4022408e-001
  3.3278826e-001
  3.5231317e-001
  3.6619006e-001
  3.6427563e-001
  3.5231317e-001
  3.4242446e-001
  3.4219100e-001
  3.4875445e-001
  3.5349173e-001
  3.5221547e-001
  3.4733096e-001
  3.4360585e-001
  3.4446738e-001
  3.4875445e-001
  3.5224699e-001
  3.5298595e-001
  3.5160142e-001
  3.4944212e-001
  3.4851042e-001
  3.4946619e-001
  3.5124059e-001
  3.5350741e-001
  3.5587189e-001
  3.5723156e-001
  3.5777694e-001
  3.5800712e-001
  3.5763879e-001
  3.5794814e-001
  3.5871886e-001
  3.5851285e-001
  3.5800799e-001
  3.5729537e-001
  3.5574863e-001
  3.5471151e-001
  3.5444840e-001
  3.5410728e-001
  3.5464367e-001
  3.5587189e-001
  3.5645162e-001
  3.5696529e-001
  3.5729537e-001
  3.5675478e-001
  3.5685728e-001
  3.5800712e-001
  3.5910456e-001
  3.6050435e-001
  3.6156584e-001
  3.6113607e-001
  3.6065180e-001
  3.6085409e-001
  3.6117415e-001
  3.6234818e-001
  3.6370107e-001
  3.6364034e-001
  3.6303588e-001
  3.6227758e-001
  3.6090414e-001
  3.6019332e-001
  3.6014235e-001
  3.5964791e-001
  3.5964046e-001
  3.6014235e-001
  3.6012335e-001
  3.6040646e-001
  3.6085409e-001
  3.6053432e-001
  3.6068948e-001
  3.6156584e-001
  3.6211602e-001
  3.6295471e-001
  3.6370107e-001
  3.6331504e-001
  3.6314691e-001
  3.6370107e-001
  3.6419112e-001
  3.6532471e-001
  3.6654804e-001
  3.6645592e-001
  3.6607514e-001
  3.6583630e-001
  3.6521259e-001
  3.6531721e-001
  3.6583630e-001
  3.6525483e-001
  3.6424842e-001
  3.6298932e-001
  3.6109963e-001
  3.6027178e-001
  3.6085409e-001
  3.6163306e-001
  3.6299748e-001
  3.6441281e-001
  3.6476478e-001
  3.6535485e-001
  3.6654804e-001
  3.6733259e-001
  3.6823058e-001
  3.6868327e-001
  3.6755331e-001
  3.6632793e-001
  3.6583630e-001
  3.6563701e-001
  3.6658760e-001
  3.6797153e-001
  3.6802712e-001
  3.6744916e-001
  3.6654804e-001
  3.6495697e-001
  3.6419245e-001
  3.6441281e-001
  3.6445587e-001
  3.6502034e-001
  3.6583630e-001
  3.6573966e-001
  3.6569429e-001
  3.6583630e-001
  3.6546139e-001
  3.6588883e-001
  3.6725979e-001
  3.6836721e-001
  3.6971641e-001
  3.7081851e-001
  3.7046980e-001
  3.6985696e-001
  3.6939502e-001
  3.6841796e-001
  3.6799950e-001
  3.6797153e-001
  3.6711637e-001
  3.6636567e-001
  3.6583630e-001
  3.6473847e-001
  3.6424563e-001
  3.6441281e-001
  3.6417240e-001
  3.6443752e-001
  3.6512456e-001
  3.6515400e-001
  3.6542694e-001
  3.6583630e-001
  3.6532902e-001
  3.6500588e-001
  3.6512456e-001
  3.6497222e-001
  3.6571470e-001
  3.6725979e-001
  3.6826119e-001
  3.6930348e-001
  3.7010676e-001
  3.6965763e-001
  3.6927269e-001
  3.6939502e-001
  3.6930142e-001
  3.6993158e-001
  3.7081851e-001
  3.7034886e-001
  3.6926862e-001
  3.6797153e-001
  3.6640293e-001
  3.6654760e-001
  3.6868327e-001
  3.7101655e-001
  3.7308971e-001
  3.7366548e-001
  3.7155563e-001
  3.6886073e-001
  3.6725979e-001
  3.6689254e-001
  3.6870651e-001
  3.7153025e-001
  3.7288228e-001
  3.7300145e-001
  3.7224199e-001
  3.7071472e-001
  3.7057250e-001
  3.7224199e-001
  3.7419005e-001
  3.7638364e-001
  3.7793594e-001
  3.7760049e-001
  3.7687606e-001
  3.7651246e-001
  3.7593754e-001
  3.7607990e-001
  3.7651246e-001
  3.7587999e-001
  3.7527190e-001
  3.7508897e-001
  3.7469339e-001
  3.7521049e-001
  3.7651246e-001
  3.7741290e-001
  3.7886157e-001
  3.8078292e-001
  3.8186844e-001
  3.8267826e-001
  3.8291815e-001
  3.8180505e-001
  3.8108256e-001
  3.8149466e-001
  3.8216110e-001
  3.8344019e-001
  3.8434164e-001
  3.8328385e-001
  3.8155335e-001
  3.8007117e-001
  3.7874328e-001
  3.7888059e-001
  3.8007117e-001
  3.8057093e-001
  3.8084368e-001
  3.8078292e-001
  3.7965581e-001
  3.7886136e-001
  3.7864769e-001
  3.7806768e-001
  3.7809322e-001
  3.7864769e-001
  3.7863882e-001
  3.7894942e-001
  3.7935943e-001
  3.7861377e-001
  3.7761643e-001
  3.7651246e-001
  3.7469722e-001
  3.7367527e-001
  3.7366548e-001
  3.7341999e-001
  3.7337867e-001
  3.7295374e-001
  3.7097147e-001
  3.6884651e-001
  3.6725979e-001
  3.6573601e-001
  3.6538152e-001
  3.6583630e-001
  3.6563281e-001
  3.6559215e-001
  3.6583630e-001
  3.6562251e-001
  3.6613360e-001
  3.6725979e-001
  3.6769475e-001
  3.6819824e-001
  3.6868327e-001
  3.6825826e-001
  3.6819479e-001
  3.6868327e-001
  3.6873247e-001
  3.6926055e-001
  3.7010676e-001
  3.7014072e-001
  3.7037754e-001
  3.7081851e-001
  3.7036500e-001
  3.6992056e-001
  3.6939502e-001
  3.6781904e-001
  3.6650221e-001
  3.6583630e-001
  3.6507190e-001
  3.6534331e-001
  3.6654804e-001
  3.6737800e-001
  3.6863010e-001
  3.7010676e-001
  3.7049463e-001
  3.7071302e-001
  3.7081851e-001
  3.6991643e-001
  3.6951628e-001
  3.7010676e-001
  3.7072312e-001
  3.7229043e-001
  3.7437722e-001
  3.7523480e-001
  3.7564515e-001
  3.7580071e-001
  3.7507316e-001
  3.7517932e-001
  3.7651246e-001
  3.7781095e-001
  3.7962593e-001
  3.8149466e-001
  3.8224600e-001
  3.8325691e-001
  3.8505338e-001
  3.8693045e-001
  3.8985367e-001
  3.9359431e-001
  3.9707205e-001
  4.0148058e-001
  4.0711744e-001
  4.1304104e-001
  4.1988645e-001
  4.2704626e-001
  4.3304963e-001
  4.3887340e-001
  4.4483986e-001
  4.5024868e-001
  4.5609411e-001
  4.6192171e-001
  4.6601724e-001
  4.6875281e-001
  4.6975089e-001
  4.6789747e-001
  4.6428717e-001
  4.5907473e-001
  4.5146688e-001
  4.4278415e-001
  4.3345196e-001
  4.2299293e-001
  4.1291901e-001
  4.0355872e-001
  3.9403791e-001
  3.8543719e-001
  3.7793594e-001
  3.7096573e-001
  3.6610860e-001
  3.6370107e-001
  3.6260509e-001
  3.6330894e-001
  3.6512456e-001
  3.6660069e-001
  3.6873447e-001
  3.7153025e-001
  3.7372838e-001
  3.7586031e-001
  3.7722420e-001
  3.7645965e-001
  3.7502890e-001
  3.7366548e-001
  3.7202631e-001
  3.7148126e-001
  3.7153025e-001
  3.7034612e-001
  3.6863830e-001
  3.6654804e-001
  3.6381469e-001
  3.6251829e-001
  3.6298932e-001
  3.6369854e-001
  3.6472780e-001
  3.6512456e-001
  3.6367812e-001
  3.6214665e-001
  3.6156584e-001
  3.6158568e-001
  3.6305146e-001
  3.6512456e-001
  3.6592314e-001
  3.6607110e-001
  3.6583630e-001
  3.6478737e-001
  3.6430662e-001
  3.6441281e-001
  3.6391275e-001
  3.6366053e-001
  3.6370107e-001
  3.6319955e-001
  3.6324522e-001
  3.6370107e-001
  3.6330263e-001
  3.6283538e-001
  3.6227758e-001
  3.6086700e-001
  3.6002092e-001
  3.6014235e-001
  3.6043764e-001
  3.6177377e-001
  3.6370107e-001
  3.6464358e-001
  3.6514518e-001
  3.6512456e-001
  3.6391135e-001
  3.6304287e-001
  3.6298932e-001
  3.6291362e-001
  3.6355407e-001
  3.6441281e-001
  3.6403979e-001
  3.6325222e-001
  3.6227758e-001
  3.6064847e-001
  3.5986590e-001
  3.6014235e-001
  3.6030567e-001
  3.6090941e-001
  3.6156584e-001
  3.6120234e-001
  3.6107095e-001
  3.6156584e-001
  3.6191765e-001
  3.6300184e-001
  3.6441281e-001
  3.6471587e-001
  3.6467464e-001
  3.6441281e-001
  3.6332337e-001
  3.6278926e-001
  3.6298932e-001
  3.6280085e-001
  3.6289208e-001
  3.6298932e-001
  3.6206559e-001
  3.6128605e-001
  3.6085409e-001
  3.5984521e-001
  3.5915520e-001
  3.5871886e-001
  3.5769107e-001
  3.5737342e-001
  3.5800712e-001
  3.5854315e-001
  3.5961026e-001
  3.6085409e-001
  3.6125345e-001
  3.6210227e-001
  3.6370107e-001
  3.6492727e-001
  3.6612296e-001
  3.6654804e-001
  3.6498337e-001
  3.6297285e-001
  3.6156584e-001
  3.6063748e-001
  3.6131603e-001
  3.6298932e-001
  3.6377717e-001
  3.6404151e-001
  3.6370107e-001
  3.6214222e-001
  3.6083723e-001
  3.6014235e-001
  3.5922391e-001
  3.5903572e-001
  3.5943060e-001
  3.5923073e-001
  3.5924394e-001
  3.5943060e-001
  3.5897509e-001
  3.5913805e-001
  3.6014235e-001
  3.6098805e-001
  3.6232944e-001
  3.6370107e-001
  3.6377039e-001
  3.6345172e-001
  3.6298932e-001
  3.6181899e-001
  3.6129352e-001
  3.6156584e-001
  3.6155092e-001
  3.6191934e-001
  3.6227758e-001
  3.6136840e-001
  3.6011109e-001
  3.5871886e-001
  3.5664714e-001
  3.5535197e-001
  3.5516014e-001
  3.5514414e-001
  3.5601504e-001
  3.5729537e-001
  3.5755858e-001
  3.5753410e-001
  3.5729537e-001
  3.5621838e-001
  3.5567018e-001
  3.5587189e-001
  3.5580010e-001
  3.5613864e-001
  3.5658363e-001
  3.5607882e-001
  3.5575074e-001
  3.5587189e-001
  3.5566163e-001
  3.5600717e-001
  3.5658363e-001
  3.5609701e-001
  3.5534967e-001
  3.5444840e-001
  3.5279817e-001
  3.5176189e-001
  3.5160142e-001
  3.5141640e-001
  3.5200073e-001
  3.5302491e-001
  3.5319669e-001
  3.5322426e-001
  3.5302491e-001
  3.5178522e-001
  3.5073951e-001
  3.5017794e-001
  3.4933907e-001
  3.4916231e-001
  3.4946619e-001
  3.4910192e-001
  3.4888251e-001
  3.4875445e-001
  3.4781326e-001
  3.4707670e-001
  3.4661922e-001
  3.4559022e-001
  3.4493546e-001
  3.4448399e-001
  3.4303091e-001
  3.4132732e-001
  3.3950178e-001
  3.3719411e-001
  3.3610092e-001
  3.3665480e-001
  3.3771038e-001
  3.3942217e-001
  3.4092527e-001
  3.4094429e-001
  3.4074205e-001
  3.4092527e-001
  3.4088726e-001
  3.4132397e-001
  3.4163701e-001
  3.4051152e-001
  3.3910435e-001
  3.3807829e-001
  3.3712273e-001
  3.3728657e-001
  3.3807829e-001
  3.3784896e-001
  3.3710377e-001
  3.3594306e-001
  3.3396276e-001
  3.3268603e-001
  3.3238434e-001
  3.3199278e-001
  3.3209048e-001
  3.3238434e-001
  3.3191778e-001
  3.3184357e-001
  3.3238434e-001
  3.3260718e-001
  3.3318475e-001
  3.3380783e-001
  3.3345233e-001
  3.3330400e-001
  3.3380783e-001
  3.3430728e-001
  3.3563690e-001
  3.3736655e-001
  3.3808546e-001
  3.3851546e-001
  3.3879004e-001
  3.3829285e-001
  3.3825185e-001
  3.3879004e-001
  3.3892161e-001
  3.3944456e-001
  3.4021352e-001
  3.4015647e-001
  3.4013746e-001
  3.4021352e-001
  3.3962669e-001
  3.3956477e-001
  3.4021352e-001
  3.4059958e-001
  3.4140563e-001
  3.4234875e-001
  3.4235170e-001
  3.4247363e-001
  3.4306050e-001
  3.4348780e-001
  3.4475339e-001
  3.4661922e-001
  3.4768337e-001
  3.4844952e-001
  3.4875445e-001
  3.4780776e-001
  3.4694300e-001
  3.4661922e-001
  3.4616691e-001
  3.4649709e-001
  3.4733096e-001
  3.4735189e-001
  3.4730513e-001
  3.4733096e-001
  3.4687455e-001
  3.4730030e-001
  3.4875445e-001
  3.4998000e-001
  3.5133586e-001
  3.5231317e-001
  3.5182540e-001
  3.5116006e-001
  3.5088968e-001
  3.5045277e-001
  3.5079756e-001
  3.5160142e-001
  3.5153018e-001
  3.5144046e-001
  3.5160142e-001
  3.5145648e-001
  3.5220977e-001
  3.5373665e-001
  3.5458632e-001
  3.5515539e-001
  3.5516014e-001
  3.5380836e-001
  3.5263732e-001
  3.5231317e-001
  3.5225048e-001
  3.5334046e-001
  3.5516014e-001
  3.5622847e-001
  3.5718311e-001
  3.5800712e-001
  3.5791497e-001
  3.5809864e-001
  3.5871886e-001
  3.5883796e-001
  3.5935537e-001
  3.6014235e-001
  3.6005910e-001
  3.6001438e-001
  3.6014235e-001
  3.5977224e-001
  3.6021370e-001
  3.6156584e-001
  3.6252534e-001
  3.6342660e-001
  3.6370107e-001
  3.6225816e-001
  3.6055208e-001
  3.5943060e-001
  3.5862224e-001
  3.5925523e-001
  3.6085409e-001
  3.6162424e-001
  3.6189516e-001
  3.6156584e-001
  3.6011815e-001
  3.5923725e-001
  3.5943060e-001
  3.5970695e-001
  3.6059189e-001
  3.6156584e-001
  3.6145170e-001
  3.6150999e-001
  3.6227758e-001
  3.6313472e-001
  3.6497747e-001
  3.6725979e-001
  3.6827548e-001
  3.6852361e-001
  3.6797153e-001
  3.6600786e-001
  3.6418559e-001
  3.6298932e-001
  3.6167112e-001
  3.6123234e-001
  3.6156584e-001
  3.6154987e-001
  3.6206846e-001
  3.6298932e-001
  3.6314483e-001
  3.6337673e-001
  3.6370107e-001
  3.6333707e-001
  3.6354967e-001
  3.6441281e-001
  3.6463594e-001
  3.6472258e-001
  3.6441281e-001
  3.6301170e-001
  3.6229376e-001
  3.6298932e-001
  3.6417924e-001
  3.6616431e-001
  3.6797153e-001
  3.6804794e-001
  3.6758857e-001
  3.6725979e-001
  3.6656843e-001
  3.6646318e-001
  3.6654804e-001
  3.6562334e-001
  3.6497046e-001
  3.6512456e-001
  3.6534362e-001
  3.6628197e-001
  3.6725979e-001
  3.6682922e-001
  3.6614727e-001
  3.6583630e-001
  3.6544253e-001
  3.6603032e-001
  3.6725979e-001
  3.6776302e-001
  3.6844003e-001
  3.6939502e-001
  3.6963302e-001
  3.6994511e-001
  3.7010676e-001
  3.6918344e-001
  3.6857444e-001
  3.6868327e-001
  3.6849003e-001
  3.6845919e-001
  3.6797153e-001
  3.6587888e-001
  3.6370023e-001
  3.6227758e-001
  3.6117690e-001
  3.6134148e-001
  3.6227758e-001
  3.6255812e-001
  3.6317109e-001
  3.6441281e-001
  3.6546420e-001
  3.6708022e-001
  3.6868327e-001
  3.6877602e-001
  3.6836141e-001
  3.6797153e-001
  3.6730866e-001
  3.6781885e-001
  3.6939502e-001
  3.7044606e-001
  3.7128971e-001
  3.7153025e-001
  3.7024001e-001
  3.6888529e-001
  3.6797153e-001
  3.6673127e-001
  3.6609425e-001
  3.6583630e-001
  3.6484654e-001
  3.6428497e-001
  3.6441281e-001
  3.6432540e-001
  3.6488926e-001
  3.6583630e-001
  3.6599033e-001
  3.6641342e-001
  3.6725979e-001
  3.6752431e-001
  3.6804141e-001
  3.6868327e-001
  3.6857714e-001
  3.6916133e-001
  3.7081851e-001
  3.7243763e-001
  3.7437725e-001
  3.7580071e-001
  3.7524607e-001
  3.7401843e-001
  3.7295374e-001
  3.7183392e-001
  3.7194248e-001
  3.7295374e-001
  3.7327085e-001
  3.7350817e-001
  3.7366548e-001
  3.7302714e-001
  3.7295739e-001
  3.7366548e-001
  3.7412990e-001
  3.7517193e-001
  3.7651246e-001
  3.7685870e-001
  3.7706108e-001
  3.7722420e-001
  3.7668391e-001
  3.7685709e-001
  3.7793594e-001
  3.7868828e-001
  3.7957391e-001
  3.8007117e-001
  3.7903864e-001
  3.7786857e-001
  3.7722420e-001
  3.7660771e-001
  3.7701448e-001
  3.7793594e-001
  3.7772151e-001
  3.7698095e-001
  3.7580071e-001
  3.7371303e-001
  3.7237365e-001
  3.7224199e-001
  3.7240816e-001
  3.7355810e-001
  3.7508897e-001
  3.7537962e-001
  3.7509183e-001
  3.7437722e-001
  3.7285732e-001
  3.7227545e-001
  3.7295374e-001
  3.7353449e-001
  3.7422054e-001
  3.7437722e-001
  3.7309348e-001
  3.7213749e-001
  3.7224199e-001
  3.7240687e-001
  3.7277214e-001
  3.7224199e-001
  3.6941774e-001
  3.6595243e-001
  3.6298932e-001
  3.6029810e-001
  3.5882359e-001
  3.5800712e-001
  3.5657871e-001
  3.5591384e-001
  3.5658363e-001
  3.5764033e-001
  3.5938100e-001
  3.6085409e-001
  3.6073653e-001
  3.6065627e-001
  3.6156584e-001
  3.6278379e-001
  3.6460492e-001
  3.6583630e-001
  3.6486973e-001
  3.6326659e-001
  3.6227758e-001
  3.6179953e-001
  3.6264149e-001
  3.6370107e-001
  3.6292128e-001
  3.6119434e-001
  3.5943060e-001
  3.5787707e-001
  3.5822740e-001
  3.6014235e-001
  3.6153325e-001
  3.6236687e-001
  3.6227758e-001
  3.6072939e-001
  3.5972367e-001
  3.6014235e-001
  3.6118631e-001
  3.6337679e-001
  3.6583630e-001
  3.6672530e-001
  3.6682686e-001
  3.6654804e-001
  3.6548531e-001
  3.6521426e-001
  3.6583630e-001
  3.6585492e-001
  3.6588710e-001
  3.6583630e-001
  3.6481859e-001
  3.6444555e-001
  3.6512456e-001
  3.6556424e-001
  3.6639969e-001
  3.6725979e-001
  3.6690987e-001
  3.6691663e-001
  3.6797153e-001
  3.6920312e-001
  3.7148799e-001
  3.7437722e-001
  3.7637133e-001
  3.7860179e-001
  3.8149466e-001
  3.8427274e-001
  3.8792581e-001
  3.9217082e-001
  3.9573409e-001
  3.9967814e-001
  4.0427046e-001
  4.0868667e-001
  4.1392225e-001
  4.1992883e-001
  4.2583771e-001
  4.3293155e-001
  4.4128114e-001
  4.4938825e-001
  4.5727949e-001
  4.6405694e-001
  4.6850089e-001
  4.7223281e-001
  4.7615658e-001
  4.7963630e-001
  4.8311601e-001
  4.8540925e-001
  4.8445311e-001
  4.8096236e-001
  4.7544484e-001
  4.6771532e-001
  4.5935728e-001
  4.5053381e-001
  4.4023029e-001
  4.2962583e-001
  4.1921708e-001
  4.0868468e-001
  3.9959846e-001
  3.9217082e-001
  3.8532806e-001
  3.7992003e-001
  3.7580071e-001
  3.7196401e-001
  3.6957151e-001
  3.6868327e-001
  3.6823907e-001
  3.6909492e-001
  3.7081851e-001
  3.7191661e-001
  3.7317027e-001
  3.7437722e-001
  3.7448103e-001
  3.7473043e-001
  3.7508897e-001
  3.7439523e-001
  3.7372786e-001
  3.7295374e-001
  3.7102057e-001
  3.6930427e-001
  3.6797153e-001
  3.6612933e-001
  3.6501887e-001
  3.6441281e-001
  3.6293363e-001
  3.6149711e-001
  3.6014235e-001
  3.5827313e-001
  3.5750577e-001
  3.5800712e-001
  3.5837187e-001
  3.5883355e-001
  3.5871886e-001
  3.5704145e-001
  3.5553725e-001
  3.5516014e-001
  3.5543932e-001
  3.5712364e-001
  3.5943060e-001
  3.6064479e-001
  3.6152085e-001
  3.6227758e-001
  3.6225544e-001
  3.6255390e-001
  3.6298932e-001
  3.6237839e-001
  3.6179849e-001
  3.6156584e-001
  3.6100146e-001
  3.6112554e-001
  3.6156584e-001
  3.6081977e-001
  3.5957584e-001
  3.5800712e-001
  3.5574704e-001
  3.5446095e-001
  3.5444840e-001
  3.5446009e-001
  3.5484995e-001
  3.5516014e-001
  3.5453543e-001
  3.5457596e-001
  3.5587189e-001
  3.5741347e-001
  3.5940884e-001
  3.6085409e-001
  3.6027035e-001
  3.5900574e-001
  3.5800712e-001
  3.5710740e-001
  3.5746945e-001
  3.5871886e-001
  3.5941370e-001
  3.6035486e-001
  3.6156584e-001
  3.6196203e-001
  3.6211745e-001
  3.6156584e-001
  3.5928273e-001
  3.5683927e-001
  3.5516014e-001
  3.5393144e-001
  3.5412394e-001
  3.5516014e-001
  3.5542109e-001
  3.5560639e-001
  3.5587189e-001
  3.5555658e-001
  3.5580242e-001
  3.5658363e-001
  3.5684318e-001
  3.5754375e-001
  3.5871886e-001
  3.5932730e-001
  3.6012061e-001
  3.6085409e-001
  3.6048310e-001
  3.6015656e-001
  3.6014235e-001
  3.5961044e-001
  3.5944572e-001
  3.5943060e-001
  3.5847772e-001
  3.5767121e-001
  3.5729537e-001
  3.5664049e-001
  3.5671650e-001
  3.5729537e-001
  3.5707459e-001
  3.5682173e-001
  3.5658363e-001
  3.5567743e-001
  3.5539097e-001
  3.5587189e-001
  3.5603748e-001
  3.5658401e-001
  3.5729537e-001
  3.5719145e-001
  3.5738960e-001
  3.5800712e-001
  3.5799647e-001
  3.5807086e-001
  3.5800712e-001
  3.5688139e-001
  3.5602220e-001
  3.5587189e-001
  3.5565999e-001
  3.5610085e-001
  3.5658363e-001
  3.5558634e-001
  3.5398814e-001
  3.5231317e-001
  3.5049752e-001
  3.5024079e-001
  3.5160142e-001
  3.5292043e-001
  3.5411166e-001
  3.5444840e-001
  3.5306994e-001
  3.5179089e-001
  3.5160142e-001
  3.5197513e-001
  3.5346787e-001
  3.5516014e-001
  3.5536156e-001
  3.5494832e-001
  3.5444840e-001
  3.5359113e-001
  3.5365606e-001
  3.5444840e-001
  3.5457053e-001
  3.5460552e-001
  3.5444840e-001
  3.5329413e-001
  3.5230097e-001
  3.5160142e-001
  3.5034557e-001
  3.4959108e-001
  3.4946619e-001
  3.4912483e-001
  3.4946045e-001
  3.5017794e-001
  3.4993742e-001
  3.4941893e-001
  3.4875445e-001
  3.4758370e-001
  3.4751548e-001
  3.4875445e-001
  3.4981793e-001
  3.5057738e-001
  3.5017794e-001
  3.4776369e-001
  3.4525321e-001
  3.4377224e-001
  3.4279221e-001
  3.4264898e-001
  3.4234875e-001
  3.4057075e-001
  3.3882320e-001
  3.3807829e-001
  3.3787813e-001
  3.3867302e-001
  3.3950178e-001
  3.3897539e-001
  3.3846514e-001
  3.3879004e-001
  3.3934458e-001
  3.4041461e-001
  3.4092527e-001
  3.3949644e-001
  3.3768052e-001
  3.3665480e-001
  3.3619547e-001
  3.3681743e-001
  3.3736655e-001
  3.3608692e-001
  3.3409514e-001
  3.3238434e-001
  3.3098070e-001
  3.3096199e-001
  3.3167260e-001
  3.3141172e-001
  3.3083095e-001
  3.3024911e-001
  3.2928952e-001
  3.2911621e-001
  3.2953737e-001
  3.2928519e-001
  3.2904495e-001
  3.2882562e-001
  3.2786404e-001
  3.2715873e-001
  3.2669039e-001
  3.2553858e-001
  3.2474116e-001
  3.2455516e-001
  3.2433262e-001
  3.2510268e-001
  3.2669039e-001
  3.2776263e-001
  3.2879114e-001
  3.2953737e-001
  3.2920377e-001
  3.2909071e-001
  3.2953737e-001
  3.2964520e-001
  3.3000833e-001
  3.3024911e-001
  3.2936574e-001
  3.2853573e-001
  3.2811388e-001
  3.2726542e-001
  3.2664322e-001
  3.2597865e-001
  3.2446743e-001
  3.2356399e-001
  3.2384342e-001
  3.2447196e-001
  3.2586530e-001
  3.2740214e-001
  3.2799184e-001
  3.2898101e-001
  3.3096085e-001
  3.3306717e-001
  3.3552057e-001
  3.3736655e-001
  3.3721715e-001
  3.3640915e-001
  3.3594306e-001
  3.3565051e-001
  3.3637562e-001
  3.3736655e-001
  3.3691674e-001
  3.3576826e-001
  3.3451957e-001
  3.3315847e-001
  3.3318679e-001
  3.3451957e-001
  3.3559433e-001
  3.3663000e-001
  3.3736655e-001
  3.3716845e-001
  3.3752206e-001
  3.3879004e-001
  3.3984193e-001
  3.4096708e-001
  3.4163701e-001
  3.4094514e-001
  3.4044143e-001
  3.4092527e-001
  3.4176548e-001
  3.4345202e-001
  3.4519573e-001
  3.4550685e-001
  3.4535758e-001
  3.4519573e-001
  3.4438666e-001
  3.4376210e-001
  3.4306050e-001
  3.4138383e-001
  3.4020935e-001
  3.4021352e-001
  3.4063019e-001
  3.4185602e-001
  3.4306050e-001
  3.4287472e-001
  3.4259639e-001
  3.4306050e-001
  3.4386742e-001
  3.4576844e-001
  3.4804270e-001
  3.4906328e-001
  3.4964979e-001
  3.5017794e-001
  3.5008582e-001
  3.5038533e-001
  3.5088968e-001
  3.5052131e-001
  3.5040907e-001
  3.5088968e-001
  3.5111235e-001
  3.5173694e-001
  3.5231317e-001
  3.5167381e-001
  3.5102274e-001
  3.5088968e-001
  3.5067886e-001
  3.5128006e-001
  3.5231317e-001
  3.5246129e-001
  3.5262131e-001
  3.5302491e-001
  3.5295930e-001
  3.5345476e-001
  3.5444840e-001
  3.5490356e-001
  3.5581572e-001
