  5.1921974e-001
  5.2094091e-001
  5.1807229e-001
  5.1692484e-001
  5.1004016e-001
  5.0946644e-001
  5.1118761e-001
  5.0659782e-001
  5.0774527e-001
  5.0946644e-001
  5.1118761e-001
  5.0946644e-001
  5.0831899e-001
  5.0717154e-001
  5.0659782e-001
  5.0430293e-001
  5.0315548e-001
  5.0487665e-001
  5.0430293e-001
  5.0487665e-001
  5.0315548e-001
  5.0086059e-001
  4.9627080e-001
  4.9913941e-001
  4.9627080e-001
  4.9856569e-001
  4.9971314e-001
  5.0086059e-001
  5.0258176e-001
  5.0086059e-001
  4.9856569e-001
  4.9856569e-001
  4.9512335e-001
  4.9569707e-001
  4.9684452e-001
  4.9569707e-001
  4.9799197e-001
  4.9569707e-001
  4.9454963e-001
  4.9225473e-001
  4.9168101e-001
  4.9110729e-001
  4.9282846e-001
  4.9512335e-001
  4.9397590e-001
  4.9340218e-001
  4.9512335e-001
  4.9454963e-001
  4.9512335e-001
  4.9684452e-001
  5.0028686e-001
  5.0372920e-001
  5.0889271e-001
  5.1061388e-001
  5.1577740e-001
  5.1577740e-001
  5.1807229e-001
  5.2036718e-001
  5.2151463e-001
  5.2266208e-001
  5.2495697e-001
  5.2725186e-001
  5.2839931e-001
  5.2725186e-001
  5.2266208e-001
  5.2495697e-001
  5.2495697e-001
  5.2667814e-001
  5.2782559e-001
  5.2725186e-001
  5.2897303e-001
  5.2667814e-001
  5.2667814e-001
  5.2380952e-001
  5.2438325e-001
  5.2553069e-001
  5.2553069e-001
  5.2725186e-001
  5.2438325e-001
  5.2667814e-001
  5.2438325e-001
  5.2438325e-001
  5.2208835e-001
  5.2667814e-001
  5.2954676e-001
  5.3413655e-001
  5.3700516e-001
  5.3700516e-001
  5.3700516e-001
  5.3872633e-001
  5.3930006e-001
  5.3987378e-001
  5.4274240e-001
  5.3987378e-001
  5.3930006e-001
  5.3700516e-001
  5.3757889e-001
  5.3356282e-001
  5.3471027e-001
  5.3069421e-001
  5.2897303e-001
  5.2610442e-001
  5.2495697e-001
  5.2782559e-001
  5.2839931e-001
  5.2380952e-001
  5.2438325e-001
  5.2151463e-001
  5.2266208e-001
  5.2208835e-001
  5.2323580e-001
  5.2208835e-001
  5.2323580e-001
  5.2323580e-001
  5.2151463e-001
  5.2151463e-001
  5.2036718e-001
  5.2208835e-001
  5.2208835e-001
  5.2323580e-001
  5.2266208e-001
  5.2380952e-001
  5.2151463e-001
  5.2208835e-001
  5.1864601e-001
  5.2151463e-001
  5.2094091e-001
  5.2380952e-001
  5.2380952e-001
  5.2495697e-001
  5.2151463e-001
  5.1979346e-001
  5.2782559e-001
  5.4331612e-001
  5.7142857e-001
  6.0814687e-001
  6.5978199e-001
  7.1428571e-001
  7.5903614e-001
  7.7510040e-001
  7.6477338e-001
  7.2059667e-001
  6.5920826e-001
  5.9036145e-001
  5.4044750e-001
  5.1233505e-001
  5.0315548e-001
  5.0545037e-001
  5.1118761e-001
  5.1004016e-001
  5.0717154e-001
  5.0602410e-001
  5.0487665e-001
  5.0545037e-001
  5.0602410e-001
  5.0258176e-001
  5.0372920e-001
  5.0200803e-001
  5.0372920e-001
  5.0430293e-001
  5.0602410e-001
  5.0487665e-001
  5.0430293e-001
  5.0372920e-001
  5.0258176e-001
  5.0258176e-001
  5.0200803e-001
  5.0200803e-001
  4.9971314e-001
  5.0258176e-001
  5.0086059e-001
  5.0315548e-001
  5.0200803e-001
  4.9913941e-001
  4.9741824e-001
  4.9799197e-001
  4.9856569e-001
  4.9799197e-001
  4.9971314e-001
  4.9799197e-001
  4.9627080e-001
  4.9282846e-001
  4.9110729e-001
  4.9282846e-001
  4.9053356e-001
  4.9110729e-001
  4.8995984e-001
  4.8995984e-001
  4.8995984e-001
  4.8881239e-001
  4.8651750e-001
  4.8709122e-001
  4.9110729e-001
  4.8766495e-001
  4.9168101e-001
  4.9225473e-001
  4.9454963e-001
  4.9569707e-001
  4.9799197e-001
  5.0372920e-001
  5.0602410e-001
  5.0946644e-001
  5.1233505e-001
  5.1520367e-001
  5.1921974e-001
  5.1692484e-001
  5.1921974e-001
  5.1749857e-001
  5.1692484e-001
  5.1864601e-001
  5.2151463e-001
  5.2323580e-001
  5.2036718e-001
  5.2036718e-001
  5.2036718e-001
  5.1692484e-001
  5.1692484e-001
  5.1921974e-001
  5.1807229e-001
  5.1921974e-001
  5.1692484e-001
  5.1749857e-001
  5.1577740e-001
  5.1462995e-001
  5.1233505e-001
  5.1176133e-001
  5.1577740e-001
  5.1577740e-001
  5.1692484e-001
  5.1807229e-001
  5.1577740e-001
  5.1577740e-001
  5.1921974e-001
  5.2036718e-001
  5.2323580e-001
  5.3012048e-001
  5.3012048e-001
  5.3298910e-001
  5.3184165e-001
  5.3298910e-001
  5.3241538e-001
  5.3298910e-001
  5.3356282e-001
  5.3069421e-001
  5.2839931e-001
  5.2782559e-001
  5.3012048e-001
  5.2495697e-001
  5.2036718e-001
  5.1577740e-001
  5.1577740e-001
  5.1520367e-001
  5.1577740e-001
  5.1807229e-001
  5.1692484e-001
  5.1577740e-001
  5.1118761e-001
  5.1118761e-001
  5.1176133e-001
  5.1233505e-001
  5.1405622e-001
  5.1577740e-001
  5.1520367e-001
  5.1520367e-001
  5.1348250e-001
  5.1176133e-001
  5.1176133e-001
  5.1233505e-001
  5.1520367e-001
  5.1520367e-001
  5.1577740e-001
  5.1462995e-001
  5.1233505e-001
  5.1118761e-001
  5.1233505e-001
  5.1348250e-001
  5.1462995e-001
  5.1520367e-001
  5.1348250e-001
  5.1692484e-001
  5.1348250e-001
  5.1577740e-001
  5.2553069e-001
  5.4274240e-001
  5.7200229e-001
  6.1158921e-001
  6.6724039e-001
  7.2461274e-001
  7.6764200e-001
  7.7510040e-001
  7.5559380e-001
  7.1658061e-001
  6.5691337e-001
  5.9208262e-001
  5.4216867e-001
  5.1118761e-001
  4.9856569e-001
  4.9627080e-001
  4.9971314e-001
  5.0143431e-001
  5.0086059e-001
  4.9856569e-001
  4.9799197e-001
  4.9512335e-001
  4.9569707e-001
  4.9053356e-001
  4.9282846e-001
  4.9282846e-001
  4.9168101e-001
  4.9282846e-001
  4.9397590e-001
  4.9282846e-001
  4.9282846e-001
  4.9168101e-001
  4.9053356e-001
  4.8881239e-001
  4.8709122e-001
  4.8651750e-001
  4.8995984e-001
  4.8995984e-001
  4.8995984e-001
  4.8938612e-001
  4.8766495e-001
  4.8594378e-001
  4.8537005e-001
  4.8479633e-001
  4.8594378e-001
  4.8594378e-001
  4.8537005e-001
  4.8364888e-001
  4.8250143e-001
  4.7676420e-001
  4.7561675e-001
  4.7561675e-001
  4.7619048e-001
  4.7791165e-001
  4.7389558e-001
  4.7848537e-001
  4.7446931e-001
  4.7160069e-001
  4.7045324e-001
  4.7102697e-001
  4.7274814e-001
  4.7274814e-001
  4.7389558e-001
  4.7332186e-001
  4.7676420e-001
  4.8020654e-001
  4.8250143e-001
  4.8537005e-001
  4.8938612e-001
  4.9454963e-001
  4.9799197e-001
  5.0086059e-001
  5.0086059e-001
  5.0258176e-001
  5.0315548e-001
  5.0487665e-001
  5.0487665e-001
  5.0774527e-001
  5.0717154e-001
  5.0889271e-001
  5.0889271e-001
  5.0545037e-001
  5.0545037e-001
  5.0487665e-001
  5.0315548e-001
  5.0143431e-001
  5.0372920e-001
  5.0602410e-001
  5.0717154e-001
  5.0487665e-001
  5.0200803e-001
  5.0315548e-001
  4.9799197e-001
  5.0200803e-001
  5.0372920e-001
  5.0430293e-001
  5.0774527e-001
  5.0602410e-001
  5.0659782e-001
  5.0659782e-001
  5.0774527e-001
  5.1004016e-001
  5.1405622e-001
  5.2036718e-001
  5.2036718e-001
  5.2610442e-001
  5.2725186e-001
  5.2495697e-001
  5.3012048e-001
  5.2782559e-001
  5.2954676e-001
  5.2897303e-001
  5.2782559e-001
  5.2897303e-001
  5.2553069e-001
  5.2151463e-001
  5.2151463e-001
  5.1635112e-001
  5.1290878e-001
  5.1348250e-001
  5.1118761e-001
  5.1405622e-001
  5.1348250e-001
  5.1233505e-001
  5.1118761e-001
  5.1061388e-001
  5.1118761e-001
  5.1118761e-001
  5.1348250e-001
  5.1405622e-001
  5.1233505e-001
  5.1118761e-001
  5.1118761e-001
  5.0774527e-001
  5.0831899e-001
  5.0946644e-001
  5.1233505e-001
  5.1462995e-001
  5.1348250e-001
  5.1348250e-001
  5.1118761e-001
  5.0946644e-001
  5.0946644e-001
  5.1061388e-001
  5.1348250e-001
  5.1233505e-001
  5.1348250e-001
  5.1233505e-001
  5.1118761e-001
  5.1405622e-001
  5.2438325e-001
  5.4847963e-001
  5.8175559e-001
  6.3052209e-001
  6.9191050e-001
  7.4928285e-001
  7.8427998e-001
  7.8427998e-001
  7.5846242e-001
  7.0969593e-001
  6.4199656e-001
  5.8060815e-001
  5.3757889e-001
  5.1405622e-001
  5.0889271e-001
  5.0831899e-001
  5.0889271e-001
  5.0717154e-001
  5.0372920e-001
  5.0200803e-001
  4.9913941e-001
  5.0028686e-001
  4.9799197e-001
  4.9799197e-001
  4.9627080e-001
  4.9741824e-001
  4.9569707e-001
  4.9856569e-001
  5.0086059e-001
  4.9913941e-001
  4.9684452e-001
  4.9569707e-001
  4.9569707e-001
  4.9512335e-001
  4.9627080e-001
  4.9454963e-001
  4.9512335e-001
  4.9741824e-001
  4.9454963e-001
  4.9454963e-001
  4.8881239e-001
  4.8938612e-001
  4.9053356e-001
  4.9168101e-001
  4.9168101e-001
  4.9053356e-001
  4.9053356e-001
  4.9053356e-001
  4.8422260e-001
  4.8307516e-001
  4.8192771e-001
  4.8078026e-001
  4.8422260e-001
  4.8364888e-001
  4.8192771e-001
  4.8135399e-001
  4.8078026e-001
  4.7848537e-001
  4.7848537e-001
  4.7905909e-001
  4.8364888e-001
  4.8364888e-001
  4.8766495e-001
  4.8938612e-001
  4.8938612e-001
  4.9282846e-001
  4.9627080e-001
  5.0028686e-001
  5.0487665e-001
  5.0889271e-001
  5.1348250e-001
  5.1692484e-001
  5.1749857e-001
  5.1520367e-001
  5.1635112e-001
  5.1807229e-001
  5.1807229e-001
  5.1807229e-001
  5.1921974e-001
  5.2151463e-001
  5.2208835e-001
  5.2036718e-001
  5.1979346e-001
  5.1749857e-001
  5.1577740e-001
  5.1692484e-001
  5.1749857e-001
  5.1979346e-001
  5.1921974e-001
  5.2094091e-001
  5.1692484e-001
  5.1176133e-001
  5.1176133e-001
  5.1290878e-001
  5.1520367e-001
  5.1807229e-001
  5.1921974e-001
  5.2036718e-001
  5.2036718e-001
  5.2208835e-001
  5.2323580e-001
  5.2782559e-001
  5.3241538e-001
  5.3585772e-001
  5.3872633e-001
  5.4044750e-001
  5.4102123e-001
  5.4159495e-001
  5.3643144e-001
  5.3356282e-001
  5.3585772e-001
  5.3241538e-001
  5.3241538e-001
  5.3126793e-001
  5.2897303e-001
  5.2553069e-001
  5.1921974e-001
  5.1692484e-001
  5.1749857e-001
  5.2094091e-001
  5.2036718e-001
  5.2151463e-001
  5.2151463e-001
  5.1979346e-001
  5.1921974e-001
  5.1807229e-001
  5.1979346e-001
  5.1807229e-001
  5.2094091e-001
  5.1979346e-001
  5.2036718e-001
  5.1921974e-001
  5.1921974e-001
  5.1921974e-001
  5.1749857e-001
  5.1749857e-001
  5.1979346e-001
  5.2094091e-001
  5.2208835e-001
  5.2094091e-001
  5.1921974e-001
  5.1921974e-001
  5.2036718e-001
  5.2094091e-001
  5.2208835e-001
  5.2323580e-001
  5.2553069e-001
  5.3815261e-001
  5.5708548e-001
  5.8921400e-001
  6.3339071e-001
  6.9420539e-001
  7.5674125e-001
  7.9575445e-001
  8.0321285e-001
  7.8255881e-001
  7.4297189e-001
  6.8100975e-001
  6.1216294e-001
  5.5708548e-001
  5.2553069e-001
  5.1635112e-001
  5.1635112e-001
  5.1749857e-001
  5.1635112e-001
  5.1118761e-001
  5.0659782e-001
  5.0372920e-001
  5.0086059e-001
  5.0372920e-001
  5.0545037e-001
  5.0717154e-001
  5.0717154e-001
  5.0372920e-001
  5.0258176e-001
  5.0258176e-001
  5.0086059e-001
  5.0315548e-001
  5.0258176e-001
  5.0143431e-001
  4.9913941e-001
  4.9741824e-001
  4.9569707e-001
  4.9454963e-001
  4.9110729e-001
  4.9110729e-001
  4.9397590e-001
  4.9397590e-001
  4.9340218e-001
  4.9168101e-001
  4.9053356e-001
  4.8709122e-001
  4.8651750e-001
  4.8594378e-001
  4.8537005e-001
  4.8364888e-001
  4.7963282e-001
  4.7963282e-001
  4.7963282e-001
  4.7619048e-001
  4.7446931e-001
  4.7274814e-001
  4.7619048e-001
  4.7504303e-001
  4.7619048e-001
  4.7504303e-001
  4.7446931e-001
  4.7332186e-001
  4.7332186e-001
  4.7332186e-001
  4.7963282e-001
  4.8250143e-001
  4.8594378e-001
  4.9168101e-001
  4.9454963e-001
  4.9684452e-001
  4.9627080e-001
  5.0315548e-001
  5.0774527e-001
  5.0659782e-001
  5.0946644e-001
  5.1004016e-001
  5.1061388e-001
  5.1233505e-001
  5.1290878e-001
  5.1004016e-001
  5.1176133e-001
  5.1176133e-001
  5.1348250e-001
  5.1405622e-001
  5.1290878e-001
  5.1348250e-001
  5.1348250e-001
  5.1176133e-001
  5.1004016e-001
  5.1176133e-001
  5.1233505e-001
  5.1405622e-001
  5.1233505e-001
  5.1233505e-001
  5.1118761e-001
  5.1004016e-001
  5.1061388e-001
  5.1348250e-001
  5.1577740e-001
  5.1979346e-001
  5.2266208e-001
  5.2323580e-001
  5.2495697e-001
  5.2667814e-001
  5.2954676e-001
  5.3241538e-001
  5.3471027e-001
  5.3815261e-001
  5.3585772e-001
  5.3471027e-001
  5.3069421e-001
  5.2839931e-001
  5.2438325e-001
  5.2553069e-001
  5.2553069e-001
  5.2380952e-001
  5.1921974e-001
  5.1921974e-001
  5.1348250e-001
  5.1462995e-001
  5.1405622e-001
  5.0946644e-001
  5.1004016e-001
  5.1348250e-001
  5.1462995e-001
  5.1462995e-001
  5.1405622e-001
  5.1290878e-001
  5.1176133e-001
  5.1348250e-001
  5.1348250e-001
  5.1290878e-001
  5.1462995e-001
  5.1462995e-001
  5.1405622e-001
  5.1118761e-001
  5.0889271e-001
  5.0774527e-001
  5.0774527e-001
  5.1004016e-001
  5.1061388e-001
  5.1004016e-001
  5.1233505e-001
  5.1118761e-001
  5.1004016e-001
  5.1176133e-001
  5.1004016e-001
  5.1061388e-001
  5.1921974e-001
  5.2897303e-001
  5.5192197e-001
  5.8806655e-001
  6.3453815e-001
  6.9592656e-001
  7.5616753e-001
  7.8657487e-001
  7.8886976e-001
  7.6133104e-001
  7.0969593e-001
  6.4199656e-001
  5.7314974e-001
  5.2380952e-001
  5.0143431e-001
  4.9053356e-001
  4.9512335e-001
  4.9971314e-001
  5.0200803e-001
  4.9913941e-001
  4.9110729e-001
  4.8881239e-001
  4.8881239e-001
  4.8766495e-001
  4.9110729e-001
  4.9110729e-001
  4.9282846e-001
  4.9225473e-001
  4.9340218e-001
  4.9340218e-001
  4.8938612e-001
  4.8881239e-001
  4.8594378e-001
  4.8766495e-001
  4.8881239e-001
  4.8938612e-001
  4.8881239e-001
  4.8881239e-001
  4.8594378e-001
  4.8537005e-001
  4.8479633e-001
  4.8537005e-001
  4.8709122e-001
  4.8881239e-001
  4.8537005e-001
  4.8651750e-001
  4.8422260e-001
  4.8479633e-001
  4.8078026e-001
  4.8078026e-001
  4.7905909e-001
  4.7963282e-001
  4.8020654e-001
  4.7848537e-001
  4.7676420e-001
  4.7504303e-001
  4.7102697e-001
  4.7045324e-001
  4.7102697e-001
  4.7389558e-001
  4.7332186e-001
  4.7332186e-001
  4.7446931e-001
  4.7217441e-001
  4.7160069e-001
  4.7676420e-001
  4.7791165e-001
  4.8192771e-001
  4.8594378e-001
  4.8995984e-001
  4.9340218e-001
  4.9512335e-001
  4.9684452e-001
  4.9971314e-001
  5.0258176e-001
  5.0372920e-001
  5.0659782e-001
  5.0659782e-001
  5.0831899e-001
  5.1004016e-001
  5.0946644e-001
  5.0889271e-001
  5.1004016e-001
  5.1233505e-001
  5.1290878e-001
  5.1233505e-001
  5.1176133e-001
  5.0946644e-001
  5.0774527e-001
  5.0659782e-001
  5.0831899e-001
  5.1061388e-001
  5.1118761e-001
  5.1290878e-001
  5.1061388e-001
  5.1061388e-001
  5.0831899e-001
  5.0831899e-001
  5.0487665e-001
  5.0946644e-001
  5.1061388e-001
  5.1348250e-001
  5.1405622e-001
  5.1462995e-001
  5.1520367e-001
  5.1462995e-001
  5.1692484e-001
  5.1864601e-001
  5.2380952e-001
  5.2839931e-001
  5.3126793e-001
  5.3471027e-001
  5.3413655e-001
  5.3069421e-001
  5.3069421e-001
  5.3012048e-001
  5.2667814e-001
  5.2553069e-001
  5.2553069e-001
  5.2323580e-001
  5.2094091e-001
  5.1577740e-001
  5.1348250e-001
  5.1348250e-001
  5.1290878e-001
  5.1290878e-001
  5.1462995e-001
  5.1290878e-001
  5.1118761e-001
  5.1118761e-001
  5.0831899e-001
  5.0545037e-001
  5.1061388e-001
  5.1004016e-001
  5.1061388e-001
  5.1118761e-001
  5.1233505e-001
  5.1118761e-001
  5.0831899e-001
  5.0831899e-001
  5.0889271e-001
  5.0831899e-001
  5.0889271e-001
  5.1176133e-001
  5.1290878e-001
  5.1004016e-001
  5.0946644e-001
  5.1004016e-001
  5.0889271e-001
  5.1061388e-001
  5.1118761e-001
  5.1233505e-001
  5.1290878e-001
  5.1462995e-001
  5.2438325e-001
  5.4446357e-001
  5.7946070e-001
  6.2880092e-001
  6.9936890e-001
  7.6247849e-001
  7.9403328e-001
  7.8886976e-001
  7.5272519e-001
  6.9191050e-001
  6.1904762e-001
  5.5479059e-001
  5.1749857e-001
  5.0028686e-001
  4.9913941e-001
  5.0602410e-001
  5.0831899e-001
  5.0602410e-001
  5.0143431e-001
  4.9569707e-001
  4.9512335e-001
  4.9741824e-001
  5.0028686e-001
  4.9913941e-001
  5.0200803e-001
  4.9856569e-001
  4.9684452e-001
  4.9340218e-001
  4.9569707e-001
  4.9512335e-001
  4.9627080e-001
  4.9913941e-001
  4.9971314e-001
  4.9856569e-001
  4.9627080e-001
  4.9512335e-001
  4.9282846e-001
  4.9397590e-001
  4.9340218e-001
  4.9684452e-001
  4.9684452e-001
  4.9799197e-001
  4.9282846e-001
  4.9282846e-001
  4.9340218e-001
  4.9225473e-001
  4.9110729e-001
  4.9282846e-001
  4.9282846e-001
  4.9168101e-001
  4.8651750e-001
  4.8537005e-001
  4.8250143e-001
  4.8135399e-001
  4.8307516e-001
  4.8192771e-001
  4.8250143e-001
  4.8020654e-001
  4.8020654e-001
  4.8192771e-001
  4.8020654e-001
  4.8537005e-001
  4.8537005e-001
  4.8651750e-001
  4.9168101e-001
  4.9569707e-001
  4.9971314e-001
  4.9741824e-001
  5.0258176e-001
  5.0774527e-001
  5.0889271e-001
  5.1233505e-001
  5.1520367e-001
  5.1635112e-001
  5.1520367e-001
  5.1807229e-001
  5.1807229e-001
  5.1749857e-001
  5.1979346e-001
  5.2036718e-001
  5.2094091e-001
  5.2208835e-001
  5.2151463e-001
  5.2208835e-001
  5.2036718e-001
  5.1864601e-001
  5.1979346e-001
  5.2094091e-001
  5.2151463e-001
  5.2094091e-001
  5.2438325e-001
  5.2094091e-001
  5.2036718e-001
  5.1979346e-001
  5.1864601e-001
  5.1979346e-001
  5.2323580e-001
  5.2610442e-001
  5.2438325e-001
  5.2839931e-001
  5.2954676e-001
  5.2954676e-001
  5.3069421e-001
  5.3413655e-001
  5.3643144e-001
  5.3987378e-001
  5.4388985e-001
  5.4331612e-001
  5.4618474e-001
  5.4331612e-001
  5.4618474e-001
  5.4159495e-001
  5.4102123e-001
  5.4216867e-001
  5.4331612e-001
  5.4102123e-001
  5.3872633e-001
  5.3356282e-001
  5.3069421e-001
  5.2897303e-001
  5.2839931e-001
  5.3012048e-001
  5.3184165e-001
  5.2954676e-001
  5.2897303e-001
  5.2667814e-001
  5.2667814e-001
  5.2667814e-001
  5.2667814e-001
  5.2610442e-001
  5.2553069e-001
  5.2782559e-001
  5.2725186e-001
  5.2553069e-001
  5.2438325e-001
  5.2438325e-001
  5.2266208e-001
  5.2323580e-001
  5.2495697e-001
  5.2667814e-001
  5.2954676e-001
  5.2667814e-001
  5.2438325e-001
  5.2438325e-001
  5.2151463e-001
  5.2438325e-001
  5.2208835e-001
  5.2495697e-001
  5.2208835e-001
  5.2438325e-001
  5.2323580e-001
  5.2954676e-001
  5.4331612e-001
  5.7200229e-001
  6.1216294e-001
  6.6781411e-001
  7.3780838e-001
  7.9001721e-001
  8.0837636e-001
  7.9345955e-001
  7.5559380e-001
  6.9592656e-001
  6.2707975e-001
  5.7085485e-001
  5.3700516e-001
  5.1807229e-001
  5.1635112e-001
  5.1692484e-001
  5.1749857e-001
  5.1462995e-001
  5.0889271e-001
  5.1004016e-001
  5.0717154e-001
  5.0659782e-001
  5.0774527e-001
  5.0717154e-001
  5.0659782e-001
  5.0659782e-001
  5.0258176e-001
  5.0602410e-001
  5.0831899e-001
  5.0946644e-001
  5.0545037e-001
  5.0659782e-001
  5.0315548e-001
  5.0315548e-001
  5.0430293e-001
  5.0545037e-001
  5.0602410e-001
  5.0487665e-001
  5.0659782e-001
  5.0258176e-001
  5.0200803e-001
  4.9971314e-001
  5.0086059e-001
  5.0086059e-001
  5.0028686e-001
  4.9971314e-001
  4.9913941e-001
  4.9856569e-001
  4.9397590e-001
  4.9454963e-001
  4.9053356e-001
  4.9110729e-001
  4.8938612e-001
  4.8995984e-001
  4.9168101e-001
  4.9110729e-001
  4.8709122e-001
  4.8938612e-001
  4.8594378e-001
  4.8651750e-001
  4.8709122e-001
  4.9110729e-001
  4.9282846e-001
  4.9741824e-001
  4.9741824e-001
  4.9913941e-001
  5.0487665e-001
  5.0831899e-001
  5.1061388e-001
  5.1405622e-001
  5.1577740e-001
  5.1979346e-001
  5.2380952e-001
  5.2323580e-001
  5.2266208e-001
  5.2553069e-001
  5.2553069e-001
  5.2667814e-001
  5.2954676e-001
  5.2897303e-001
  5.2954676e-001
  5.2725186e-001
  5.2610442e-001
  5.2725186e-001
  5.2553069e-001
  5.2725186e-001
  5.2553069e-001
  5.2667814e-001
  5.2782559e-001
  5.2667814e-001
  5.2553069e-001
  5.2323580e-001
  5.2208835e-001
  5.2323580e-001
  5.2553069e-001
  5.2897303e-001
  5.2782559e-001
  5.3241538e-001
  5.2954676e-001
  5.3012048e-001
  5.3012048e-001
  5.3298910e-001
  5.3930006e-001
  5.4388985e-001
  5.4847963e-001
  5.4905336e-001
  5.5020080e-001
  5.4503729e-001
  5.4216867e-001
  5.4102123e-001
  5.3872633e-001
  5.3930006e-001
  5.3872633e-001
  5.3872633e-001
  5.3700516e-001
  5.3012048e-001
  5.2667814e-001
  5.2610442e-001
  5.2667814e-001
  5.2782559e-001
  5.2667814e-001
  5.2839931e-001
  5.2782559e-001
  5.2725186e-001
  5.2610442e-001
  5.2380952e-001
  5.2438325e-001
  5.2610442e-001
  5.2438325e-001
  5.2725186e-001
  5.2495697e-001
  5.2495697e-001
  5.2553069e-001
  5.2208835e-001
  5.2266208e-001
  5.2266208e-001
  5.2725186e-001
  5.2725186e-001
  5.2667814e-001
  5.2610442e-001
  5.2553069e-001
  5.2380952e-001
  5.2151463e-001
  5.2323580e-001
  5.2495697e-001
  5.2667814e-001
  5.3012048e-001
  5.4044750e-001
  5.6052783e-001
  5.8806655e-001
  6.3683305e-001
  6.9535284e-001
  7.5559380e-001
  7.9919679e-001
  8.0780264e-001
  7.9173838e-001
  7.4813540e-001
  6.8273092e-001
  6.0929432e-001
  5.5077453e-001
  5.2036718e-001
  5.1176133e-001
  5.1520367e-001
  5.1807229e-001
  5.2036718e-001
  5.1405622e-001
  5.0774527e-001
  5.0487665e-001
  5.0545037e-001
  5.1004016e-001
  5.1118761e-001
  5.1176133e-001
  5.1118761e-001
  5.0889271e-001
  5.0889271e-001
  5.0659782e-001
  5.0545037e-001
  5.0889271e-001
  5.0774527e-001
  5.0889271e-001
  5.0659782e-001
  5.0602410e-001
  5.0258176e-001
  5.0372920e-001
  5.0143431e-001
  5.0086059e-001
  5.0028686e-001
  5.0315548e-001
  5.0200803e-001
  5.0143431e-001
  4.9684452e-001
  4.9684452e-001
  4.9397590e-001
  4.9454963e-001
  4.9741824e-001
  4.9569707e-001
  4.9282846e-001
  4.8995984e-001
  4.8938612e-001
  4.8364888e-001
  4.8364888e-001
  4.8135399e-001
  4.8422260e-001
  4.8422260e-001
  4.8537005e-001
  4.8479633e-001
  4.8479633e-001
  4.8250143e-001
  4.8766495e-001
  4.8594378e-001
  4.9225473e-001
  4.9741824e-001
  5.0487665e-001
  5.0602410e-001
  5.1118761e-001
  5.1176133e-001
  5.1290878e-001
  5.1233505e-001
  5.1520367e-001
  5.1807229e-001
  5.2208835e-001
  5.1864601e-001
  5.2094091e-001
  5.2094091e-001
  5.1979346e-001
  5.2094091e-001
  5.1921974e-001
  5.2208835e-001
  5.2208835e-001
  5.2266208e-001
  5.2208835e-001
  5.2036718e-001
  5.1692484e-001
  5.1692484e-001
  5.1692484e-001
  5.1864601e-001
  5.2036718e-001
  5.1807229e-001
  5.2036718e-001
  5.2036718e-001
  5.1864601e-001
  5.1635112e-001
  5.1635112e-001
  5.1921974e-001
  5.2036718e-001
  5.2266208e-001
  5.2667814e-001
  5.3126793e-001
  5.3126793e-001
  5.3184165e-001
  5.3413655e-001
  5.3471027e-001
  5.4044750e-001
  5.3930006e-001
  5.4044750e-001
  5.3930006e-001
  5.3585772e-001
  5.3184165e-001
  5.3012048e-001
  5.3069421e-001
  5.2782559e-001
  5.2897303e-001
  5.2380952e-001
  5.2208835e-001
  5.1520367e-001
  5.1348250e-001
  5.1520367e-001
  5.1520367e-001
  5.1520367e-001
  5.1749857e-001
  5.1749857e-001
  5.1749857e-001
  5.1577740e-001
  5.1290878e-001
  5.1176133e-001
  5.0946644e-001
  5.0717154e-001
  5.1405622e-001
  5.1520367e-001
  5.1520367e-001
  5.1290878e-001
  5.1348250e-001
  5.1233505e-001
  5.1004016e-001
  5.1118761e-001
  5.1290878e-001
  5.1176133e-001
  5.1462995e-001
  5.1233505e-001
  5.1405622e-001
  5.1004016e-001
  5.1118761e-001
  5.1061388e-001
  5.1520367e-001
  5.3012048e-001
  5.5306942e-001
  5.8806655e-001
  6.3625932e-001
  6.9879518e-001
  7.5960987e-001
  7.9804934e-001
  8.0263913e-001
  7.8026391e-001
  7.3895582e-001
  6.7068273e-001
  6.0068847e-001
  5.4159495e-001
  5.0545037e-001
  4.9053356e-001
  4.8881239e-001
  4.9454963e-001
  5.0028686e-001
  4.9856569e-001
  4.9512335e-001
  4.9397590e-001
  4.8995984e-001
  4.8881239e-001
  4.8995984e-001
  4.8938612e-001
  4.9053356e-001
  4.9168101e-001
  4.9053356e-001
  4.8995984e-001
  4.9053356e-001
  4.8938612e-001
  4.8766495e-001
  4.8594378e-001
  4.8881239e-001
  4.8823867e-001
  4.8422260e-001
  4.8537005e-001
  4.8192771e-001
  4.7963282e-001
  4.8135399e-001
  4.7905909e-001
  4.8135399e-001
  4.7905909e-001
  4.8020654e-001
  4.8078026e-001
  4.8020654e-001
  4.7963282e-001
  4.7733792e-001
  4.7733792e-001
  4.7619048e-001
  4.7676420e-001
  4.7504303e-001
  4.7504303e-001
  4.7561675e-001
  4.7274814e-001
  4.7045324e-001
  4.7102697e-001
  4.6987952e-001
  4.6930579e-001
  4.7102697e-001
  4.7274814e-001
  4.7619048e-001
  4.7791165e-001
  4.7791165e-001
  4.8078026e-001
  4.8479633e-001
  4.8995984e-001
  4.9799197e-001
  5.0143431e-001
  5.0545037e-001
  5.0659782e-001
  5.0430293e-001
  5.0487665e-001
  5.0372920e-001
  5.1004016e-001
  5.1176133e-001
  5.1405622e-001
  5.1290878e-001
  5.1290878e-001
  5.1290878e-001
  5.1061388e-001
  5.0946644e-001
  5.1004016e-001
  5.1233505e-001
  5.1176133e-001
  5.1462995e-001
  5.1520367e-001
  5.1233505e-001
  5.1118761e-001
  5.1118761e-001
  5.0889271e-001
  5.1118761e-001
  5.1061388e-001
  5.1176133e-001
  5.1118761e-001
  5.1348250e-001
  5.1118761e-001
  5.1405622e-001
  5.1233505e-001
  5.1405622e-001
  5.1577740e-001
  5.1807229e-001
  5.2380952e-001
  5.2725186e-001
  5.2839931e-001
  5.2725186e-001
  5.2954676e-001
  5.3126793e-001
  5.3471027e-001
  5.3528399e-001
  5.3528399e-001
  5.2954676e-001
  5.2380952e-001
  5.2323580e-001
  5.2610442e-001
  5.2380952e-001
  5.2323580e-001
  5.1921974e-001
  5.1577740e-001
  5.1348250e-001
  5.1749857e-001
  5.1577740e-001
  5.1405622e-001
  5.1405622e-001
  5.1118761e-001
  5.1118761e-001
  5.1348250e-001
  5.1233505e-001
  5.1462995e-001
  5.1348250e-001
  5.1118761e-001
  5.1176133e-001
  5.1004016e-001
  5.1061388e-001
  5.1290878e-001
  5.1118761e-001
  5.1290878e-001
  5.1462995e-001
  5.1118761e-001
  5.1004016e-001
  5.0946644e-001
  5.1290878e-001
  5.1577740e-001
  5.1577740e-001
  5.1233505e-001
  5.1520367e-001
  5.1233505e-001
  5.0831899e-001
  5.1118761e-001
  5.1520367e-001
  5.2610442e-001
  5.5134825e-001
  5.8347676e-001
  6.3396443e-001
  6.9191050e-001
  7.5272519e-001
  7.9632817e-001
  8.0149168e-001
  7.8370625e-001
  7.3723465e-001
  6.7412507e-001
  6.0470453e-001
  5.4733219e-001
  5.1520367e-001
  5.0086059e-001
  4.9684452e-001
  4.9684452e-001
  4.9684452e-001
  4.9741824e-001
  4.9397590e-001
  4.9340218e-001
  4.8938612e-001
  4.9110729e-001
  4.8995984e-001
  4.9168101e-001
  4.9282846e-001
  4.9454963e-001
  4.9225473e-001
  4.9053356e-001
  4.8881239e-001
  4.8709122e-001
  4.8881239e-001
  4.8881239e-001
  4.9168101e-001
  4.8938612e-001
  4.8651750e-001
  4.8651750e-001
  4.8422260e-001
  4.7963282e-001
  4.8020654e-001
  4.8078026e-001
  4.7905909e-001
  4.7848537e-001
  4.7848537e-001
  4.7905909e-001
  4.7733792e-001
  4.7676420e-001
  4.7504303e-001
  4.7217441e-001
  4.7217441e-001
  4.7045324e-001
  4.6987952e-001
  4.6930579e-001
  4.6930579e-001
  4.6299484e-001
  4.5897877e-001
  4.5668388e-001
  4.5668388e-001
  4.5783133e-001
  4.6184739e-001
  4.6069994e-001
  4.6528973e-001
  4.6586345e-001
  4.6356856e-001
  4.6643718e-001
  4.6815835e-001
  4.7045324e-001
  4.7619048e-001
  4.8135399e-001
  4.8709122e-001
  4.9225473e-001
  4.9282846e-001
  4.9569707e-001
  4.9856569e-001
  4.9856569e-001
  5.0258176e-001
  5.0487665e-001
  5.0659782e-001
  5.0831899e-001
  5.0659782e-001
  5.0602410e-001
  5.0315548e-001
  5.0774527e-001
  5.0717154e-001
  5.0831899e-001
  5.1061388e-001
  5.0946644e-001
  5.0889271e-001
  5.0659782e-001
  5.0487665e-001
  5.0487665e-001
  5.0831899e-001
  5.0889271e-001
  5.1004016e-001
  5.1061388e-001
  5.0946644e-001
  5.1118761e-001
  5.1004016e-001
  5.1118761e-001
  5.1118761e-001
  5.1118761e-001
  5.1635112e-001
  5.2151463e-001
  5.2438325e-001
  5.2553069e-001
  5.2667814e-001
  5.2782559e-001
  5.3126793e-001
  5.3700516e-001
  5.3700516e-001
  5.3930006e-001
  5.3757889e-001
  5.3356282e-001
  5.3184165e-001
  5.3012048e-001
  5.3069421e-001
  5.2897303e-001
  5.2725186e-001
  5.2266208e-001
  5.1979346e-001
  5.1864601e-001
  5.1577740e-001
  5.2036718e-001
  5.1864601e-001
  5.1635112e-001
  5.2036718e-001
  5.2036718e-001
  5.2094091e-001
  5.1921974e-001
  5.1749857e-001
  5.1749857e-001
  5.2036718e-001
  5.1979346e-001
  5.2151463e-001
  5.1979346e-001
  5.2208835e-001
  5.2151463e-001
  5.2323580e-001
  5.1921974e-001
  5.1921974e-001
  5.1864601e-001
  5.2036718e-001
  5.2323580e-001
  5.2208835e-001
  5.2266208e-001
  5.2380952e-001
  5.2094091e-001
  5.2036718e-001
  5.2151463e-001
  5.2725186e-001
  5.4274240e-001
  5.7601836e-001
  6.2707975e-001
  6.9133678e-001
  7.4928285e-001
  7.9345955e-001
  8.0665519e-001
  7.9403328e-001
  7.5502008e-001
  6.9191050e-001
  6.1904762e-001
  5.5765921e-001
  5.2380952e-001
  5.0831899e-001
  5.1118761e-001
  5.1462995e-001
  5.1692484e-001
  5.1577740e-001
  5.1118761e-001
  5.1061388e-001
  5.0889271e-001
  5.0545037e-001
  5.0774527e-001
  5.0774527e-001
  5.0717154e-001
  5.0889271e-001
  5.0889271e-001
  5.0602410e-001
  5.0659782e-001
  5.0487665e-001
  5.0086059e-001
  5.0258176e-001
  5.0200803e-001
  5.0315548e-001
  5.0430293e-001
  5.0315548e-001
  5.0487665e-001
  5.0545037e-001
  5.0028686e-001
  5.0372920e-001
  5.0086059e-001
  5.0086059e-001
  5.0200803e-001
  5.0200803e-001
  5.0143431e-001
  4.9971314e-001
  4.9856569e-001
  4.9684452e-001
  4.9454963e-001
  4.9340218e-001
  4.9569707e-001
  4.9512335e-001
  4.9397590e-001
  4.9168101e-001
  4.8995984e-001
  4.8709122e-001
  4.8537005e-001
  4.8479633e-001
  4.8766495e-001
  4.9110729e-001
  4.9225473e-001
  4.9397590e-001
  4.9741824e-001
  4.9684452e-001
  4.9971314e-001
  5.0258176e-001
  5.0659782e-001
  5.1405622e-001
  5.1635112e-001
  5.1921974e-001
  5.2036718e-001
  5.2208835e-001
  5.2323580e-001
  5.2094091e-001
  5.2323580e-001
  5.2667814e-001
  5.2839931e-001
  5.2725186e-001
  5.2725186e-001
  5.2438325e-001
  5.2380952e-001
  5.2380952e-001
  5.2266208e-001
  5.2553069e-001
  5.2495697e-001
  5.2725186e-001
  5.2725186e-001
  5.2725186e-001
  5.2380952e-001
  5.2380952e-001
  5.2323580e-001
  5.2266208e-001
  5.2380952e-001
  5.2667814e-001
  5.2553069e-001
  5.2553069e-001
  5.2495697e-001
  5.2610442e-001
  5.2667814e-001
  5.2897303e-001
  5.3184165e-001
  5.3528399e-001
  5.3872633e-001
  5.3987378e-001
  5.4216867e-001
  5.4503729e-001
  5.4561102e-001
  5.4962708e-001
  5.5192197e-001
  5.4847963e-001
  5.5077453e-001
  5.4675846e-001
  5.4274240e-001
  5.4044750e-001
  5.3872633e-001
  5.3872633e-001
  5.3471027e-001
  5.3241538e-001
  5.3069421e-001
  5.2897303e-001
  5.2782559e-001
  5.2782559e-001
  5.2725186e-001
  5.2495697e-001
  5.2667814e-001
  5.2725186e-001
  5.2782559e-001
  5.2610442e-001
  5.2782559e-001
  5.2495697e-001
  5.2553069e-001
  5.2495697e-001
  5.2323580e-001
  5.2438325e-001
  5.2610442e-001
  5.2553069e-001
  5.2553069e-001
  5.2610442e-001
  5.2380952e-001
  5.2438325e-001
  5.2323580e-001
  5.2151463e-001
  5.2151463e-001
  5.2151463e-001
  5.2036718e-001
  5.2094091e-001
  5.1692484e-001
  5.1635112e-001
  5.1520367e-001
  5.1864601e-001
  5.2954676e-001
  5.4388985e-001
  5.7257602e-001
  6.1216294e-001
  6.6896156e-001
  7.2690763e-001
  7.7395295e-001
  8.0034423e-001
  7.9747562e-001
  7.7395295e-001
  7.2346529e-001
  6.5691337e-001
  5.8864028e-001
  5.3815261e-001
  5.1577740e-001
  5.0946644e-001
  5.1176133e-001
  5.1290878e-001
  5.1635112e-001
  5.1061388e-001
  5.0545037e-001
  5.0143431e-001
  4.9741824e-001
  4.9856569e-001
  4.9971314e-001
  4.9971314e-001
  5.0258176e-001
  5.0430293e-001
  5.0372920e-001
  4.9856569e-001
  4.9971314e-001
  4.9684452e-001
  4.9799197e-001
  4.9741824e-001
  4.9799197e-001
  4.9569707e-001
  4.9684452e-001
  4.9741824e-001
  4.9512335e-001
  4.9110729e-001
  4.9168101e-001
  4.9110729e-001
  4.9225473e-001
  4.9282846e-001
  4.9397590e-001
  4.8938612e-001
  4.8766495e-001
  4.8709122e-001
  4.8823867e-001
  4.8479633e-001
  4.8307516e-001
  4.8364888e-001
  4.8250143e-001
  4.8250143e-001
  4.8250143e-001
  4.8020654e-001
  4.7619048e-001
  4.7619048e-001
  4.7561675e-001
  4.7963282e-001
  4.8078026e-001
  4.7963282e-001
  4.7733792e-001
  4.7733792e-001
  4.8020654e-001
  4.8364888e-001
  4.8135399e-001
  4.8938612e-001
  4.9512335e-001
  4.9684452e-001
  4.9971314e-001
  5.0372920e-001
  5.0545037e-001
  5.0774527e-001
  5.1061388e-001
  5.1290878e-001
  5.1520367e-001
  5.1348250e-001
  5.1692484e-001
  5.1577740e-001
  5.1635112e-001
  5.1405622e-001
  5.1520367e-001
  5.1462995e-001
  5.1577740e-001
  5.1692484e-001
  5.1692484e-001
  5.1462995e-001
  5.1004016e-001
  5.1348250e-001
  5.1176133e-001
  5.1348250e-001
  5.1176133e-001
  5.1290878e-001
  5.1233505e-001
  5.1462995e-001
  5.1348250e-001
  5.1520367e-001
  5.1635112e-001
  5.2036718e-001
  5.2323580e-001
  5.2839931e-001
  5.3069421e-001
  5.3184165e-001
  5.3471027e-001
  5.3413655e-001
  5.3471027e-001
  5.3126793e-001
  5.3356282e-001
  5.3298910e-001
  5.3413655e-001
  5.3184165e-001
  5.3184165e-001
  5.2725186e-001
  5.2151463e-001
  5.1864601e-001
  5.1520367e-001
  5.1577740e-001
  5.1692484e-001
  5.1807229e-001
  5.1749857e-001
  5.1520367e-001
  5.1176133e-001
  5.1176133e-001
  5.1118761e-001
  5.1233505e-001
  5.1405622e-001
  5.1290878e-001
  5.1462995e-001
  5.1004016e-001
  5.1004016e-001
  5.0889271e-001
  5.0889271e-001
  5.0889271e-001
  5.1004016e-001
  5.1290878e-001
  5.1061388e-001
  5.1061388e-001
  5.0889271e-001
  5.0774527e-001
  5.0946644e-001
  5.0946644e-001
  5.1233505e-001
  5.1233505e-001
  5.1004016e-001
  5.1176133e-001
  5.1290878e-001
  5.2897303e-001
  5.5536431e-001
  5.9724613e-001
  6.5806081e-001
  7.2059667e-001
  7.6821572e-001
  7.9059094e-001
  7.7969019e-001
  7.3895582e-001
  6.7814114e-001
  6.0470453e-001
  5.4044750e-001
  5.0889271e-001
  4.9569707e-001
  4.9512335e-001
  4.9799197e-001
  4.9627080e-001
  4.9454963e-001
  4.8651750e-001
  4.8651750e-001
  4.8307516e-001
  4.8537005e-001
  4.8709122e-001
  4.8823867e-001
  4.8537005e-001
  4.8594378e-001
  4.8479633e-001
  4.8823867e-001
  4.8651750e-001
  4.8938612e-001
  4.8823867e-001
  4.8766495e-001
  4.8594378e-001
  4.8422260e-001
  4.8594378e-001
  4.8364888e-001
  4.8307516e-001
  4.8307516e-001
  4.8250143e-001
  4.8250143e-001
  4.7963282e-001
  4.8020654e-001
  4.7905909e-001
  4.7676420e-001
  4.7905909e-001
  4.7905909e-001
  4.7676420e-001
  4.7676420e-001
  4.7619048e-001
  4.7160069e-001
  4.6930579e-001
  4.6643718e-001
  4.6701090e-001
  4.6873207e-001
  4.6758462e-001
  4.6873207e-001
  4.6701090e-001
  4.6586345e-001
  4.6528973e-001
  4.6299484e-001
  4.6356856e-001
  4.6414228e-001
  4.6758462e-001
  4.6930579e-001
  4.7160069e-001
  4.7561675e-001
  4.7791165e-001
  4.8135399e-001
  4.8479633e-001
  4.8766495e-001
  4.8938612e-001
  4.9454963e-001
  4.9627080e-001
  4.9799197e-001
  4.9741824e-001
  4.9684452e-001
  4.9684452e-001
  4.9913941e-001
  4.9799197e-001
  5.0200803e-001
  5.0086059e-001
  5.0258176e-001
  4.9971314e-001
  4.9684452e-001
  5.0028686e-001
  4.9856569e-001
  4.9971314e-001
  4.9913941e-001
  4.9971314e-001
  4.9856569e-001
  4.9799197e-001
  4.9856569e-001
  4.9741824e-001
  4.9512335e-001
  4.9799197e-001
  4.9627080e-001
  4.9856569e-001
  5.0200803e-001
  5.0258176e-001
  4.9913941e-001
  5.0258176e-001
  5.0372920e-001
  5.0258176e-001
  5.0946644e-001
  5.1004016e-001
  5.1520367e-001
  5.1864601e-001
  5.2036718e-001
  5.2323580e-001
  5.2323580e-001
  5.2266208e-001
  5.2323580e-001
  5.2438325e-001
  5.2380952e-001
  5.2094091e-001
  5.2036718e-001
  5.1749857e-001
  5.1807229e-001
  5.1462995e-001
  5.1176133e-001
  5.1118761e-001
  5.0946644e-001
  5.0774527e-001
  5.0889271e-001
  5.0602410e-001
  5.0372920e-001
  5.0372920e-001
  5.0430293e-001
  5.0602410e-001
  5.0659782e-001
  5.0831899e-001
  5.0946644e-001
  5.0717154e-001
  5.0602410e-001
  5.0545037e-001
  5.0487665e-001
  5.0602410e-001
  5.0774527e-001
  5.0946644e-001
  5.0889271e-001
  5.0659782e-001
  5.0545037e-001
  5.0315548e-001
  5.0430293e-001
  5.0717154e-001
  5.0889271e-001
  5.0946644e-001
  5.1004016e-001
  5.0946644e-001
  5.0774527e-001
  5.0602410e-001
  5.1004016e-001
  5.2323580e-001
  5.4790591e-001
  5.8462421e-001
  6.3855422e-001
  6.9994263e-001
  7.5100402e-001
  7.7969019e-001
  7.7969019e-001
  7.5846242e-001
  7.1600688e-001
  6.5404475e-001
  5.8462421e-001
  5.2839931e-001
  4.9856569e-001
  4.8594378e-001
  4.8823867e-001
  4.9454963e-001
  4.9741824e-001
  4.9397590e-001
  4.9110729e-001
  4.9053356e-001
  4.8938612e-001
  4.8709122e-001
  4.8537005e-001
  4.8766495e-001
  4.8766495e-001
  4.8823867e-001
  4.8881239e-001
  4.8881239e-001
  4.8938612e-001
  4.8766495e-001
  4.8307516e-001
  4.8307516e-001
  4.8192771e-001
  4.8594378e-001
  4.8651750e-001
  4.8364888e-001
  4.8364888e-001
  4.8479633e-001
  4.8250143e-001
  4.8250143e-001
  4.8020654e-001
  4.8135399e-001
  4.8422260e-001
  4.8594378e-001
  4.8594378e-001
  4.8479633e-001
  4.8250143e-001
  4.8020654e-001
  4.7905909e-001
  4.7848537e-001
  4.7848537e-001
  4.7963282e-001
  4.7676420e-001
  4.7733792e-001
  4.7619048e-001
  4.7446931e-001
  4.7332186e-001
  4.7274814e-001
  4.6930579e-001
  4.7504303e-001
  4.7676420e-001
  4.7733792e-001
  4.8020654e-001
  4.8020654e-001
  4.8651750e-001
  4.8709122e-001
  4.9512335e-001
  4.9856569e-001
  5.0430293e-001
  5.0545037e-001
  5.0717154e-001
  5.0831899e-001
  5.0602410e-001
  5.0774527e-001
  5.0659782e-001
  5.1061388e-001
  5.1348250e-001
  5.1462995e-001
  5.1520367e-001
  5.1348250e-001
  5.1348250e-001
  5.1004016e-001
  5.1233505e-001
  5.1118761e-001
  5.1290878e-001
  5.1290878e-001
  5.1290878e-001
  5.1348250e-001
  5.0889271e-001
  5.0659782e-001
  5.0831899e-001
  5.0831899e-001
  5.1061388e-001
  5.1004016e-001
  5.1290878e-001
  5.1405622e-001
  5.1233505e-001
  5.1061388e-001
  5.1176133e-001
  5.1405622e-001
  5.1807229e-001
  5.2208835e-001
  5.2495697e-001
  5.2610442e-001
  5.2782559e-001
  5.2839931e-001
  5.3184165e-001
  5.3356282e-001
  5.3471027e-001
  5.3528399e-001
  5.3184165e-001
  5.2897303e-001
  5.2725186e-001
  5.2323580e-001
  5.2266208e-001
  5.2036718e-001
  5.1807229e-001
  5.1692484e-001
  5.1405622e-001
  5.1290878e-001
  5.1233505e-001
  5.1176133e-001
  5.1004016e-001
  5.0889271e-001
  5.1004016e-001
  5.1004016e-001
  5.0946644e-001
  5.0831899e-001
  5.0659782e-001
  5.0831899e-001
  5.0774527e-001
  5.0774527e-001
  5.0774527e-001
  5.1004016e-001
  5.1004016e-001
  5.1061388e-001
  5.1118761e-001
  5.0717154e-001
  5.0717154e-001
  5.0545037e-001
  5.0889271e-001
  5.0831899e-001
  5.0946644e-001
  5.0889271e-001
  5.0831899e-001
  5.0946644e-001
  5.0717154e-001
  5.1118761e-001
  5.2323580e-001
  5.5249570e-001
  5.9380379e-001
  6.4658635e-001
  7.0682731e-001
  7.5559380e-001
  7.8083764e-001
  7.7796902e-001
  7.4354561e-001
  6.8559954e-001
  6.1216294e-001
  5.4905336e-001
  5.1233505e-001
  4.9684452e-001
  4.9799197e-001
  5.0143431e-001
  5.0372920e-001
  4.9856569e-001
  4.9684452e-001
  4.9569707e-001
  4.9799197e-001
  4.9684452e-001
  4.9741824e-001
  4.9569707e-001
  4.9627080e-001
  4.9684452e-001
  4.9684452e-001
  4.9971314e-001
  5.0086059e-001
  5.0258176e-001
  4.9684452e-001
  4.9684452e-001
  4.9856569e-001
  4.9569707e-001
  4.9512335e-001
  4.9569707e-001
  4.9627080e-001
  4.9741824e-001
  4.9569707e-001
  4.9569707e-001
  4.9225473e-001
  4.9225473e-001
  4.9168101e-001
  4.9454963e-001
  4.9397590e-001
  4.9110729e-001
  4.9168101e-001
  4.9053356e-001
  4.8709122e-001
  4.8594378e-001
  4.8537005e-001
  4.8651750e-001
  4.8537005e-001
  4.8422260e-001
  4.8307516e-001
  4.8135399e-001
  4.8192771e-001
  4.7963282e-001
  4.7791165e-001
  4.7963282e-001
  4.8078026e-001
  4.8078026e-001
  4.8192771e-001
  4.8823867e-001
  4.8823867e-001
  4.8995984e-001
  4.9340218e-001
  5.0028686e-001
  5.0258176e-001
  5.0831899e-001
  5.0946644e-001
  5.0889271e-001
  5.1061388e-001
  5.1176133e-001
  5.1061388e-001
  5.1405622e-001
  5.1405622e-001
  5.1348250e-001
  5.1749857e-001
  5.1749857e-001
  5.1577740e-001
  5.1290878e-001
  5.1405622e-001
  5.1233505e-001
  5.1176133e-001
  5.1348250e-001
  5.1462995e-001
  5.1462995e-001
  5.1348250e-001
  5.1176133e-001
  5.1061388e-001
  5.1118761e-001
  5.0717154e-001
  5.0831899e-001
  5.1233505e-001
  5.1290878e-001
  5.1233505e-001
  5.1348250e-001
  5.1520367e-001
  5.1520367e-001
  5.1577740e-001
  5.1979346e-001
  5.2553069e-001
  5.2897303e-001
  5.2839931e-001
  5.3528399e-001
  5.3184165e-001
  5.3069421e-001
  5.2897303e-001
  5.2667814e-001
  5.2667814e-001
  5.2725186e-001
  5.2839931e-001
  5.2782559e-001
  5.2495697e-001
  5.1979346e-001
  5.1520367e-001
  5.1405622e-001
  5.1577740e-001
  5.1692484e-001
  5.2036718e-001
  5.1921974e-001
  5.1462995e-001
  5.1462995e-001
  5.1348250e-001
  5.1520367e-001
  5.1405622e-001
  5.1692484e-001
  5.1635112e-001
  5.1692484e-001
  5.1520367e-001
  5.1462995e-001
  5.1290878e-001
  5.1348250e-001
  5.1118761e-001
  5.1635112e-001
  5.1233505e-001
  5.1462995e-001
  5.1290878e-001
  5.1233505e-001
  5.1176133e-001
  5.1290878e-001
  5.1290878e-001
  5.1405622e-001
  5.1004016e-001
  5.0602410e-001
  5.1290878e-001
  5.2610442e-001
  5.4503729e-001
  5.7487091e-001
  6.1388411e-001
  6.6838784e-001
  7.3149742e-001
  7.7739530e-001
  7.9460700e-001
  7.7969019e-001
  7.3723465e-001
  6.7297762e-001
  5.9954102e-001
  5.4388985e-001
  5.1118761e-001
  5.0086059e-001
  5.0086059e-001
  5.0143431e-001
  5.0258176e-001
  4.9799197e-001
  4.9168101e-001
  4.8823867e-001
  4.9053356e-001
  4.9340218e-001
  4.9569707e-001
  4.9454963e-001
  4.9397590e-001
  4.9340218e-001
  4.9340218e-001
  4.9340218e-001
  4.9627080e-001
  4.9684452e-001
  4.9684452e-001
  4.9684452e-001
  4.9627080e-001
  4.9512335e-001
  4.9454963e-001
  4.9168101e-001
  4.9282846e-001
  4.9340218e-001
  4.9627080e-001
  4.9627080e-001
  4.9340218e-001
  4.9053356e-001
  4.8709122e-001
  4.8594378e-001
  4.8709122e-001
  4.8651750e-001
  4.8938612e-001
  4.8651750e-001
  4.8537005e-001
  4.8250143e-001
  4.7905909e-001
  4.7905909e-001
  4.7848537e-001
  4.7733792e-001
  4.7733792e-001
  4.7905909e-001
  4.7905909e-001
  4.7561675e-001
  4.7446931e-001
  4.7274814e-001
  4.7504303e-001
  4.7504303e-001
  4.7963282e-001
  4.8537005e-001
  4.8938612e-001
  4.9110729e-001
  4.9454963e-001
  4.9913941e-001
  4.9913941e-001
  5.0372920e-001
  5.0774527e-001
  5.1004016e-001
  5.1233505e-001
  5.1635112e-001
  5.1348250e-001
  5.1405622e-001
  5.1176133e-001
  5.1118761e-001
  5.1176133e-001
  5.1577740e-001
  5.1635112e-001
  5.1520367e-001
  5.1176133e-001
  5.0946644e-001
  5.0946644e-001
  5.1004016e-001
  5.0946644e-001
  5.1118761e-001
  5.1233505e-001
  5.1290878e-001
  5.1118761e-001
  5.0717154e-001
  5.0717154e-001
  5.0717154e-001
  5.0487665e-001
  5.0889271e-001
  5.1118761e-001
  5.1176133e-001
  5.1405622e-001
  5.1176133e-001
  5.1348250e-001
  5.1520367e-001
  5.1749857e-001
  5.2094091e-001
  5.2094091e-001
  5.2495697e-001
  5.2839931e-001
  5.3069421e-001
  5.2954676e-001
  5.3126793e-001
  5.2954676e-001
  5.2782559e-001
  5.2782559e-001
  5.2610442e-001
  5.2553069e-001
  5.2553069e-001
  5.2151463e-001
  5.1405622e-001
  5.0946644e-001
  5.0602410e-001
  5.0717154e-001
  5.1118761e-001
  5.1176133e-001
  5.0889271e-001
  5.1061388e-001
  5.0602410e-001
  5.0545037e-001
  5.0200803e-001
  5.0430293e-001
  5.0602410e-001
  5.0717154e-001
  5.0545037e-001
  5.0659782e-001
  5.0430293e-001
  5.0258176e-001
  5.0430293e-001
  5.0315548e-001
  5.0659782e-001
  5.0487665e-001
  5.0659782e-001
  5.0487665e-001
  5.0430293e-001
  5.0315548e-001
  5.0200803e-001
  5.0143431e-001
  5.0372920e-001
  5.0487665e-001
  5.0372920e-001
  5.0315548e-001
  5.0602410e-001
  5.0717154e-001
  5.2208835e-001
  5.4618474e-001
  5.8978772e-001
  6.4658635e-001
  7.0969593e-001
  7.6477338e-001
  7.9001721e-001
  7.8370625e-001
  7.5100402e-001
  6.9363167e-001
  6.2593230e-001
  5.6167527e-001
  5.1692484e-001
  4.9913941e-001
  4.9340218e-001
  4.9053356e-001
  4.9168101e-001
  4.8881239e-001
  4.8766495e-001
  4.8651750e-001
  4.8364888e-001
  4.8537005e-001
  4.8594378e-001
  4.8766495e-001
  4.8422260e-001
  4.8537005e-001
  4.8422260e-001
  4.8364888e-001
  4.8537005e-001
  4.8651750e-001
  4.8651750e-001
  4.8537005e-001
  4.8364888e-001
  4.8135399e-001
  4.8250143e-001
  4.8422260e-001
  4.8364888e-001
  4.8422260e-001
  4.8307516e-001
  4.8192771e-001
  4.8078026e-001
  4.7963282e-001
  4.7848537e-001
  4.7791165e-001
  4.7905909e-001
  4.7733792e-001
  4.7848537e-001
  4.7504303e-001
  4.7504303e-001
  4.7332186e-001
  4.7102697e-001
  4.6815835e-001
  4.6873207e-001
  4.6758462e-001
  4.6643718e-001
  4.6643718e-001
  4.6528973e-001
  4.6299484e-001
  4.6414228e-001
  4.6414228e-001
  4.6414228e-001
  4.6586345e-001
  4.7160069e-001
  4.7102697e-001
  4.7619048e-001
  4.7619048e-001
  4.8135399e-001
  4.8709122e-001
  4.8766495e-001
  4.9282846e-001
  4.9856569e-001
  5.0200803e-001
  5.0315548e-001
  5.0487665e-001
  5.0258176e-001
  5.0200803e-001
  5.0430293e-001
  5.0717154e-001
  5.0774527e-001
  5.0774527e-001
  5.1061388e-001
  5.0889271e-001
  5.0889271e-001
  5.0659782e-001
  5.0545037e-001
  5.0831899e-001
  5.0717154e-001
  5.0774527e-001
  5.0717154e-001
  5.1004016e-001
  5.0659782e-001
  5.0774527e-001
  5.0659782e-001
  5.0602410e-001
  5.0889271e-001
  5.1004016e-001
  5.1118761e-001
  5.1233505e-001
  5.1118761e-001
  5.1118761e-001
  5.1004016e-001
  5.1233505e-001
  5.1520367e-001
  5.1921974e-001
  5.2094091e-001
  5.2495697e-001
  5.2897303e-001
  5.2495697e-001
  5.2782559e-001
  5.2839931e-001
  5.3413655e-001
  5.3757889e-001
  5.3872633e-001
  5.3700516e-001
  5.3241538e-001
  5.3126793e-001
  5.2839931e-001
  5.2610442e-001
  5.2266208e-001
  5.2438325e-001
  5.2036718e-001
  5.1635112e-001
  5.1405622e-001
  5.1290878e-001
  5.1118761e-001
  5.1290878e-001
  5.1118761e-001
  5.1118761e-001
  5.1405622e-001
  5.1348250e-001
  5.1348250e-001
  5.1348250e-001
  5.1061388e-001
  5.1004016e-001
  5.1061388e-001
  5.0889271e-001
  5.1233505e-001
  5.1348250e-001
  5.1348250e-001
  5.1176133e-001
  5.1061388e-001
  5.0889271e-001
  5.0602410e-001
  5.0545037e-001
  5.0717154e-001
  5.0774527e-001
  5.0889271e-001
  5.0487665e-001
  5.0487665e-001
  5.0372920e-001
  5.0602410e-001
  5.0717154e-001
  5.0487665e-001
  5.1118761e-001
  5.2208835e-001
  5.3930006e-001
  5.6970740e-001
  6.1158921e-001
  6.6724039e-001
  7.2174412e-001
  7.6534710e-001
  7.8657487e-001
  7.7969019e-001
  7.5043029e-001
  6.9764773e-001
  6.3166954e-001
  5.6626506e-001
  5.2208835e-001
  5.0487665e-001
  5.0258176e-001
  5.0545037e-001
  5.1004016e-001
  5.0774527e-001
  5.0372920e-001
  4.9684452e-001
  4.9856569e-001
  4.9454963e-001
  5.0028686e-001
  4.9856569e-001
  5.0258176e-001
  5.0372920e-001
  5.0315548e-001
  4.9971314e-001
  4.9627080e-001
  4.9627080e-001
  4.9913941e-001
  4.9913941e-001
  5.0086059e-001
  4.9856569e-001
  5.0086059e-001
  4.9741824e-001
  4.9454963e-001
  4.9512335e-001
  4.9340218e-001
  4.9454963e-001
  4.9684452e-001
  4.9741824e-001
  4.9627080e-001
  4.9741824e-001
  4.9282846e-001
  4.9282846e-001
  4.9168101e-001
  4.9168101e-001
  4.9282846e-001
  4.9053356e-001
  4.9053356e-001
  4.8709122e-001
  4.8364888e-001
  4.8192771e-001
  4.7963282e-001
  4.8192771e-001
  4.8078026e-001
  4.8192771e-001
  4.8364888e-001
  4.8479633e-001
  4.8020654e-001
  4.8192771e-001
  4.7619048e-001
  4.8020654e-001
  4.8307516e-001
  4.8881239e-001
  4.9282846e-001
  4.9627080e-001
  4.9741824e-001
  5.0028686e-001
  5.0315548e-001
  5.0430293e-001
  5.0602410e-001
  5.0831899e-001
  5.1233505e-001
  5.1290878e-001
  5.1176133e-001
  5.1176133e-001
  5.1118761e-001
  5.1118761e-001
  5.1004016e-001
  5.1176133e-001
  5.1520367e-001
  5.1462995e-001
  5.1405622e-001
  5.1176133e-001
  5.1176133e-001
  5.0946644e-001
  5.1176133e-001
  5.1348250e-001
  5.1118761e-001
  5.1290878e-001
  5.1118761e-001
  5.1176133e-001
  5.0946644e-001
  5.0889271e-001
  5.0487665e-001
  5.1004016e-001
  5.1176133e-001
  5.1233505e-001
  5.1348250e-001
  5.1520367e-001
  5.1520367e-001
  5.1635112e-001
  5.1921974e-001
  5.2323580e-001
  5.2438325e-001
  5.2897303e-001
  5.3184165e-001
  5.3126793e-001
  5.3356282e-001
  5.3184165e-001
  5.2725186e-001
  5.2782559e-001
  5.2610442e-001
  5.2553069e-001
  5.2438325e-001
  5.2553069e-001
  5.2266208e-001
  5.1807229e-001
  5.1348250e-001
  5.1118761e-001
  5.1176133e-001
  5.1290878e-001
  5.1348250e-001
  5.1176133e-001
  5.1176133e-001
  5.1061388e-001
  5.0889271e-001
  5.1118761e-001
  5.1176133e-001
  5.1118761e-001
  5.1233505e-001
  5.1348250e-001
  5.1462995e-001
  5.1004016e-001
  5.1061388e-001
  5.0889271e-001
  5.0831899e-001
  5.0889271e-001
  5.1004016e-001
  5.1118761e-001
  5.0889271e-001
  5.1118761e-001
  5.0946644e-001
  5.0487665e-001
  5.0315548e-001
  5.0315548e-001
  5.1004016e-001
  5.1061388e-001
  5.1004016e-001
  5.1061388e-001
  5.1577740e-001
  5.3184165e-001
  5.5823293e-001
  6.0298336e-001
  6.6207688e-001
  7.1944923e-001
  7.6592083e-001
  7.8083764e-001
  7.6993689e-001
  7.3379231e-001
  6.7871486e-001
  6.0642570e-001
  5.5134825e-001
  5.1635112e-001
  5.0372920e-001
  5.0258176e-001
  5.0487665e-001
  5.0315548e-001
  5.0028686e-001
  4.9569707e-001
  4.9340218e-001
  4.9282846e-001
  4.9397590e-001
  4.9684452e-001
  4.9627080e-001
  4.9282846e-001
  4.9454963e-001
  4.9340218e-001
  4.9799197e-001
  4.9397590e-001
  4.9684452e-001
  4.9799197e-001
  4.9741824e-001
  4.9397590e-001
  4.9282846e-001
  4.9397590e-001
  4.9168101e-001
  4.9454963e-001
  4.9225473e-001
  4.9282846e-001
  4.9282846e-001
  4.9340218e-001
  4.8881239e-001
  4.8995984e-001
  4.8881239e-001
  4.8995984e-001
  4.8823867e-001
  4.8938612e-001
  4.8823867e-001
  4.8651750e-001
  4.8594378e-001
  4.8422260e-001
  4.8250143e-001
  4.8020654e-001
  4.7963282e-001
  4.7905909e-001
  4.8135399e-001
  4.8250143e-001
  4.7791165e-001
  4.7619048e-001
  4.7791165e-001
  4.7963282e-001
  4.7733792e-001
  4.8651750e-001
  4.8709122e-001
  4.8881239e-001
  4.9397590e-001
  4.9454963e-001
  4.9856569e-001
  5.0200803e-001
  5.0602410e-001
  5.0889271e-001
  5.1290878e-001
  5.1176133e-001
  5.1290878e-001
  5.1635112e-001
  5.1348250e-001
  5.1462995e-001
  5.1577740e-001
  5.1577740e-001
  5.1462995e-001
  5.1749857e-001
  5.1864601e-001
  5.1462995e-001
  5.1348250e-001
  5.1061388e-001
  5.1004016e-001
  5.1290878e-001
  5.1233505e-001
  5.1233505e-001
  5.1176133e-001
  5.1118761e-001
  5.0717154e-001
  5.0659782e-001
  5.0545037e-001
  5.0717154e-001
  5.0889271e-001
  5.1118761e-001
  5.1061388e-001
  5.1176133e-001
  5.1061388e-001
  5.1004016e-001
  5.1176133e-001
  5.1233505e-001
  5.1864601e-001
  5.2151463e-001
  5.2323580e-001
  5.2725186e-001
  5.2782559e-001
  5.2782559e-001
  5.3012048e-001
  5.3126793e-001
  5.3126793e-001
  5.2897303e-001
  5.2954676e-001
  5.2553069e-001
  5.2380952e-001
  5.2151463e-001
  5.1749857e-001
  5.1118761e-001
  5.0889271e-001
  5.0889271e-001
  5.0831899e-001
  5.0717154e-001
  5.0545037e-001
  5.0487665e-001
  5.0831899e-001
  5.0372920e-001
  5.0430293e-001
  5.0487665e-001
  5.0602410e-001
  5.0430293e-001
  5.0545037e-001
  5.0372920e-001
  5.0086059e-001
  5.0200803e-001
  5.0086059e-001
  5.0315548e-001
  5.0372920e-001
  5.0487665e-001
  5.0487665e-001
  5.0086059e-001
  5.0028686e-001
  4.9741824e-001
  4.9512335e-001
  4.9913941e-001
  4.9913941e-001
  5.0143431e-001
  4.9913941e-001
  5.0086059e-001
  4.9741824e-001
  4.9856569e-001
  5.0487665e-001
  5.2782559e-001
  5.6397017e-001
  6.1331038e-001
  6.7355135e-001
  7.3207114e-001
  7.6592083e-001
  7.6764200e-001
  7.3780838e-001
  6.8617326e-001
  6.2019507e-001
  5.5765921e-001
  5.1233505e-001
  4.8651750e-001
  4.7676420e-001
  4.7504303e-001
  4.7676420e-001
  4.7389558e-001
  4.7274814e-001
  4.7045324e-001
  4.6987952e-001
  4.6873207e-001
  4.6930579e-001
  4.6528973e-001
  4.6528973e-001
  4.6586345e-001
  4.6299484e-001
  4.6528973e-001
  4.6528973e-001
  4.6528973e-001
  4.6356856e-001
  4.6184739e-001
  4.5897877e-001
  4.5725760e-001
  4.5725760e-001
  4.5611015e-001
  4.5668388e-001
  4.5438898e-001
  4.5324154e-001
  4.5266781e-001
  4.5209409e-001
  4.5152037e-001
  4.4922547e-001
  4.4750430e-001
  4.4750430e-001
  4.4865175e-001
  4.4578313e-001
  4.4406196e-001
  4.4406196e-001
  4.4176707e-001
  4.4234079e-001
  4.3947217e-001
  4.3947217e-001
  4.4061962e-001
  4.3832473e-001
  4.3775100e-001
  4.3488239e-001
  4.3373494e-001
  4.3144005e-001
  4.3144005e-001
  4.3086632e-001
  4.3545611e-001
  4.3947217e-001
  4.4004590e-001
  4.4635686e-001
  4.4578313e-001
  4.4807803e-001
  4.5324154e-001
  4.5668388e-001
  4.6184739e-001
  4.6815835e-001
  4.6930579e-001
  4.7102697e-001
  4.6987952e-001
  4.7389558e-001
  4.7446931e-001
  4.7791165e-001
  4.7963282e-001
  4.8192771e-001
  4.8192771e-001
  4.8250143e-001
  4.8364888e-001
  4.8020654e-001
  4.8020654e-001
  4.8020654e-001
  4.8307516e-001
  4.8537005e-001
  4.8651750e-001
  4.8479633e-001
  4.8479633e-001
  4.8651750e-001
  4.8422260e-001
  4.8766495e-001
  4.8938612e-001
  4.9053356e-001
  4.9627080e-001
  4.9454963e-001
  4.9569707e-001
  4.9569707e-001
  4.9454963e-001
  4.9569707e-001
  4.9512335e-001
  5.0028686e-001
  5.0430293e-001
  5.0717154e-001
  5.1176133e-001
  5.1290878e-001
  5.1176133e-001
  5.1233505e-001
  5.1577740e-001
  5.2094091e-001
  5.2667814e-001
  5.2897303e-001
  5.2725186e-001
  5.2553069e-001
  5.2380952e-001
  5.1864601e-001
  5.1749857e-001
  5.1807229e-001
  5.1405622e-001
  5.1462995e-001
  5.1290878e-001
  5.0889271e-001
  5.0602410e-001
  5.0602410e-001
  5.0659782e-001
  5.0889271e-001
  5.0659782e-001
  5.0659782e-001
  5.0659782e-001
  5.0717154e-001
  5.0315548e-001
  5.0545037e-001
  5.0602410e-001
  5.0831899e-001
  5.1061388e-001
  5.1176133e-001
  5.1004016e-001
  5.1061388e-001
  5.0889271e-001
  5.0602410e-001
  5.0487665e-001
  5.0659782e-001
  5.0717154e-001
  5.0889271e-001
  5.1004016e-001
  5.0774527e-001
  5.0831899e-001
  5.0430293e-001
  5.0315548e-001
  5.0372920e-001
  5.0315548e-001
  5.0659782e-001
  5.1004016e-001
  5.1692484e-001
  5.3700516e-001
  5.6282272e-001
  6.0527826e-001
  6.6092943e-001
  7.2403901e-001
  7.7223178e-001
  7.8944349e-001
  7.8026391e-001
  7.3838210e-001
  6.7412507e-001
  6.0298336e-001
  5.4733219e-001
  5.1290878e-001
  4.9799197e-001
  4.9512335e-001
  4.9856569e-001
  4.9971314e-001
  4.9569707e-001
  4.8823867e-001
  4.8766495e-001
  4.8594378e-001
  4.8479633e-001
  4.8938612e-001
  4.9110729e-001
  4.9168101e-001
  4.9225473e-001
  4.8823867e-001
  4.8709122e-001
  4.8709122e-001
  4.8709122e-001
  4.8651750e-001
  4.8766495e-001
  4.8651750e-001
  4.8479633e-001
  4.8422260e-001
  4.8250143e-001
  4.7848537e-001
  4.7791165e-001
  4.7905909e-001
  4.8135399e-001
  4.8135399e-001
  4.8364888e-001
  4.8078026e-001
  4.8020654e-001
  4.7733792e-001
  4.7733792e-001
  4.7619048e-001
  4.7561675e-001
  4.7905909e-001
  4.7561675e-001
  4.7446931e-001
  4.7332186e-001
  4.7045324e-001
  4.6930579e-001
  4.6987952e-001
  4.6873207e-001
  4.6987952e-001
  4.7102697e-001
  4.6930579e-001
  4.6987952e-001
  4.6528973e-001
  4.6930579e-001
  4.7160069e-001
  4.7561675e-001
  4.7905909e-001
  4.8594378e-001
  4.8766495e-001
  4.9168101e-001
  4.9454963e-001
  4.9799197e-001
  4.9856569e-001
  5.0028686e-001
  5.0200803e-001
  5.0487665e-001
  5.0946644e-001
  5.0717154e-001
  5.0946644e-001
  5.0659782e-001
  5.0717154e-001
  5.0659782e-001
  5.0545037e-001
  5.0889271e-001
  5.1061388e-001
  5.0946644e-001
  5.0889271e-001
  5.0659782e-001
  5.0545037e-001
  5.0315548e-001
  5.0717154e-001
  5.0717154e-001
  5.0717154e-001
  5.0659782e-001
  5.0602410e-001
  5.0487665e-001
  5.0258176e-001
  5.0372920e-001
  5.0831899e-001
  5.1176133e-001
  5.1290878e-001
  5.1577740e-001
  5.1807229e-001
  5.1979346e-001
  5.2323580e-001
  5.2438325e-001
  5.2553069e-001
  5.3012048e-001
  5.3471027e-001
  5.3528399e-001
  5.3298910e-001
  5.3126793e-001
  5.2610442e-001
  5.2094091e-001
  5.2208835e-001
  5.2208835e-001
  5.2151463e-001
  5.1864601e-001
  5.1290878e-001
  5.1233505e-001
  5.1004016e-001
  5.0717154e-001
  5.0831899e-001
  5.0659782e-001
  5.0774527e-001
  5.0717154e-001
  5.0774527e-001
  5.1004016e-001
  5.0545037e-001
  5.0487665e-001
  5.0258176e-001
  5.0487665e-001
  5.0602410e-001
  5.0545037e-001
  5.0659782e-001
  5.0602410e-001
  5.0659782e-001
  5.0487665e-001
  5.0372920e-001
  5.0200803e-001
  5.0086059e-001
  5.0200803e-001
  5.0258176e-001
  5.0258176e-001
  5.0086059e-001
  4.9971314e-001
  4.9971314e-001
  4.9799197e-001
  4.9799197e-001
  5.0200803e-001
  5.0717154e-001
  5.2266208e-001
  5.4847963e-001
  5.8978772e-001
  6.4658635e-001
  7.1485944e-001
  7.7223178e-001
  8.0091796e-001
  7.9288583e-001
  7.4985657e-001
  6.7986231e-001
  6.0642570e-001
  5.3815261e-001
  5.0430293e-001
  4.8709122e-001
  4.8709122e-001
  4.9225473e-001
  4.9454963e-001
  4.9110729e-001
  4.8709122e-001
  4.8135399e-001
  4.8192771e-001
  4.8192771e-001
  4.8479633e-001
  4.8307516e-001
  4.8594378e-001
  4.8938612e-001
  4.8766495e-001
  4.8823867e-001
  4.8651750e-001
  4.8651750e-001
  4.8709122e-001
  4.8823867e-001
  4.8995984e-001
  4.8881239e-001
  4.8766495e-001
  4.8709122e-001
  4.8422260e-001
  4.8192771e-001
  4.8192771e-001
  4.8192771e-001
  4.8479633e-001
  4.8709122e-001
  4.8537005e-001
  4.8364888e-001
  4.8078026e-001
  4.7963282e-001
  4.7963282e-001
  4.7676420e-001
  4.7733792e-001
  4.7676420e-001
  4.7791165e-001
  4.7446931e-001
  4.7274814e-001
  4.6873207e-001
  4.6701090e-001
  4.6930579e-001
  4.6930579e-001
  4.6643718e-001
  4.6586345e-001
  4.6528973e-001
  4.6643718e-001
  4.6643718e-001
  4.6815835e-001
  4.7045324e-001
  4.7619048e-001
  4.8078026e-001
  4.8422260e-001
  4.8709122e-001
  4.9454963e-001
  4.9282846e-001
  4.9454963e-001
  4.9684452e-001
  4.9971314e-001
  5.0258176e-001
  5.0545037e-001
  5.0430293e-001
  5.0774527e-001
  5.0774527e-001
  5.0602410e-001
  5.0717154e-001
  5.0831899e-001
  5.0889271e-001
  5.0831899e-001
  5.0946644e-001
  5.0889271e-001
  5.0889271e-001
  5.0602410e-001
  5.0315548e-001
  5.0372920e-001
  5.0315548e-001
  5.0430293e-001
  5.0315548e-001
  5.0372920e-001
  5.0602410e-001
  5.0545037e-001
  5.0545037e-001
  5.0200803e-001
  5.0258176e-001
  5.0200803e-001
  5.0774527e-001
  5.0831899e-001
  5.1118761e-001
  5.1004016e-001
  5.0946644e-001
  5.1118761e-001
  5.1290878e-001
  5.1692484e-001
  5.2553069e-001
  5.2725186e-001
  5.2954676e-001
  5.3069421e-001
  5.3012048e-001
  5.2954676e-001
  5.2954676e-001
  5.3184165e-001
  5.2667814e-001
  5.2323580e-001
  5.2495697e-001
  5.2495697e-001
  5.2323580e-001
  5.1635112e-001
  5.1118761e-001
  5.0774527e-001
  5.0889271e-001
  5.1061388e-001
  5.1176133e-001
  5.1290878e-001
  5.1061388e-001
  5.0717154e-001
  5.0946644e-001
  5.0889271e-001
  5.0946644e-001
  5.0946644e-001
  5.1462995e-001
  5.1348250e-001
  5.1176133e-001
  5.1061388e-001
  5.0774527e-001
  5.0774527e-001
  5.0774527e-001
  5.1061388e-001
  5.1233505e-001
  5.1118761e-001
  5.1118761e-001
  5.0659782e-001
  5.0659782e-001
  5.0200803e-001
  5.0258176e-001
  5.0430293e-001
  5.0717154e-001
  5.0889271e-001
  5.0659782e-001
  5.1176133e-001
  5.1692484e-001
  5.3413655e-001
  5.6798623e-001
  6.2134251e-001
  6.8961561e-001
  7.5100402e-001
  7.9173838e-001
  7.9919679e-001
  7.7739530e-001
  7.2403901e-001
  6.5060241e-001
  5.7716581e-001
  5.2610442e-001
  5.0372920e-001
  4.9971314e-001
  5.0430293e-001
  5.0315548e-001
  5.0086059e-001
  4.9856569e-001
  4.9512335e-001
  4.9340218e-001
  4.9627080e-001
  4.9799197e-001
  4.9741824e-001
  4.9799197e-001
  4.9799197e-001
  4.9856569e-001
  4.9799197e-001
  4.9971314e-001
  4.9971314e-001
  5.0143431e-001
  5.0028686e-001
  5.0086059e-001
  4.9741824e-001
  4.9741824e-001
  4.9569707e-001
  4.9799197e-001
  5.0086059e-001
  4.9971314e-001
  5.0143431e-001
  5.0315548e-001
  4.9913941e-001
  4.9684452e-001
  4.9684452e-001
  4.9741824e-001
  4.9569707e-001
  4.9856569e-001
  4.9799197e-001
  4.9569707e-001
  4.9340218e-001
  4.9053356e-001
  4.8537005e-001
  4.8823867e-001
  4.8651750e-001
  4.9053356e-001
  4.8938612e-001
  4.9225473e-001
  4.8995984e-001
  4.8823867e-001
  4.8651750e-001
  4.8594378e-001
  4.8881239e-001
  4.9110729e-001
  4.9225473e-001
  4.9799197e-001
  4.9971314e-001
  5.0487665e-001
  5.0545037e-001
  5.0889271e-001
  5.1348250e-001
  5.1520367e-001
  5.1979346e-001
  5.2208835e-001
  5.2266208e-001
  5.2380952e-001
  5.2208835e-001
  5.2380952e-001
  5.2380952e-001
  5.2266208e-001
  5.2380952e-001
  5.2667814e-001
  5.2839931e-001
  5.2782559e-001
  5.2553069e-001
  5.2151463e-001
  5.2151463e-001
  5.2266208e-001
  5.2438325e-001
  5.2553069e-001
  5.2495697e-001
  5.2323580e-001
  5.2036718e-001
  5.2094091e-001
  5.1864601e-001
  5.1921974e-001
  5.2151463e-001
  5.2094091e-001
  5.2151463e-001
  5.2151463e-001
  5.2094091e-001
  5.1979346e-001
  5.2036718e-001
  5.1921974e-001
  5.2151463e-001
  5.2725186e-001
  5.2954676e-001
  5.2954676e-001
  5.3184165e-001
  5.3184165e-001
  5.3585772e-001
  5.3643144e-001
  5.4274240e-001
  5.4503729e-001
  5.4503729e-001
  5.4388985e-001
  5.4216867e-001
  5.3930006e-001
  5.3356282e-001
  5.3184165e-001
  5.3126793e-001
  5.3184165e-001
  5.2782559e-001
  5.2610442e-001
  5.2323580e-001
  5.2036718e-001
  5.1864601e-001
  5.1921974e-001
  5.1749857e-001
  5.1749857e-001
  5.1979346e-001
  5.2380952e-001
  5.2266208e-001
  5.2208835e-001
  5.1864601e-001
  5.1692484e-001
  5.1749857e-001
  5.1807229e-001
  5.1692484e-001
  5.1807229e-001
  5.1462995e-001
  5.1405622e-001
  5.1176133e-001
  5.1061388e-001
  5.0889271e-001
  5.0889271e-001
  5.1061388e-001
  5.0946644e-001
  5.1061388e-001
  5.0831899e-001
  5.0717154e-001
  5.0717154e-001
  5.0659782e-001
  5.0717154e-001
  5.1004016e-001
  5.1921974e-001
  5.3872633e-001
  5.6397017e-001
  6.0470453e-001
  6.5633964e-001
  7.1428571e-001
  7.5674125e-001
  7.7624785e-001
  7.6534710e-001
  7.3034997e-001
  6.7010901e-001
  5.9896730e-001
  5.4044750e-001
  5.0889271e-001
  4.9856569e-001
  4.9971314e-001
  5.0487665e-001
  5.0659782e-001
  5.0430293e-001
  4.9799197e-001
  4.9684452e-001
  4.9397590e-001
  4.9282846e-001
  4.9397590e-001
  4.9512335e-001
  4.9799197e-001
  5.0028686e-001
  5.0028686e-001
  5.0200803e-001
  4.9741824e-001
  4.9684452e-001
  4.9684452e-001
  4.9741824e-001
  4.9913941e-001
  4.9913941e-001
  4.9971314e-001
  4.9684452e-001
  4.9684452e-001
  4.9454963e-001
  4.9340218e-001
  4.9168101e-001
  4.9282846e-001
  4.9340218e-001
  4.9397590e-001
  4.9340218e-001
  4.9053356e-001
  4.8709122e-001
  4.8364888e-001
  4.8823867e-001
  4.8709122e-001
  4.8479633e-001
  4.8479633e-001
  4.8364888e-001
  4.8364888e-001
  4.7905909e-001
  4.7905909e-001
  4.7676420e-001
  4.7733792e-001
  4.7733792e-001
  4.7676420e-001
  4.8078026e-001
  4.8192771e-001
  4.8250143e-001
  4.8135399e-001
  4.8479633e-001
  4.9282846e-001
  4.9684452e-001
  4.9971314e-001
  5.0659782e-001
  5.0774527e-001
  5.0831899e-001
  5.0717154e-001
  5.0889271e-001
  5.0774527e-001
  5.1004016e-001
  5.1348250e-001
  5.1348250e-001
  5.1577740e-001
  5.1233505e-001
  5.1118761e-001
  5.1176133e-001
  5.1118761e-001
  5.1290878e-001
  5.1118761e-001
  5.1577740e-001
  5.1405622e-001
  5.1118761e-001
  5.1118761e-001
  5.0889271e-001
  5.0774527e-001
  5.0774527e-001
  5.0831899e-001
  5.1004016e-001
  5.1118761e-001
  5.0946644e-001
  5.0889271e-001
  5.0889271e-001
  5.0831899e-001
  5.1061388e-001
  5.1635112e-001
  5.1921974e-001
  5.2323580e-001
  5.2553069e-001
  5.2839931e-001
  5.2725186e-001
  5.2954676e-001
  5.2954676e-001
  5.3012048e-001
  5.2495697e-001
  5.2610442e-001
  5.2438325e-001
  5.2208835e-001
  5.2036718e-001
  5.1921974e-001
  5.1577740e-001
  5.1290878e-001
  5.1061388e-001
  5.1290878e-001
  5.1176133e-001
  5.1004016e-001
  5.0946644e-001
  5.0659782e-001
  5.0487665e-001
  5.0774527e-001
  5.0831899e-001
  5.0889271e-001
  5.1118761e-001
  5.1004016e-001
  5.1004016e-001
  5.0774527e-001
  5.0831899e-001
  5.0602410e-001
  5.0602410e-001
  5.0889271e-001
  5.1004016e-001
  5.0889271e-001
  5.0659782e-001
  5.0545037e-001
  5.0602410e-001
  5.0487665e-001
  5.0430293e-001
  5.0602410e-001
  5.0430293e-001
  5.0372920e-001
  5.0315548e-001
  5.0200803e-001
  5.0258176e-001
  5.0659782e-001
  5.1635112e-001
  5.3872633e-001
  5.7142857e-001
  6.1962134e-001
  6.7814114e-001
  7.3149742e-001
  7.6764200e-001
  7.7051061e-001
  7.4297189e-001
  6.9191050e-001
  6.2019507e-001
  5.5536431e-001
  5.1061388e-001
  4.9168101e-001
  4.8881239e-001
  4.9397590e-001
  4.9512335e-001
  4.9340218e-001
  4.8938612e-001
  4.8709122e-001
  4.8709122e-001
  4.8537005e-001
  4.8709122e-001
  4.8537005e-001
  4.8594378e-001
  4.8537005e-001
  4.8537005e-001
  4.8766495e-001
  4.8823867e-001
  4.8823867e-001
  4.8709122e-001
  4.8651750e-001
  4.8709122e-001
  4.8594378e-001
  4.8422260e-001
  4.8651750e-001
  4.8709122e-001
  4.8594378e-001
  4.8709122e-001
  4.8651750e-001
  4.8651750e-001
  4.8364888e-001
  4.8250143e-001
  4.8192771e-001
  4.8364888e-001
  4.8307516e-001
  4.8192771e-001
  4.8078026e-001
  4.7733792e-001
  4.7504303e-001
  4.7389558e-001
  4.7446931e-001
  4.7332186e-001
  4.7274814e-001
  4.7332186e-001
  4.7160069e-001
  4.7045324e-001
  4.6873207e-001
  4.6815835e-001
  4.6643718e-001
  4.6987952e-001
  4.6987952e-001
  4.6987952e-001
  4.7102697e-001
  4.7446931e-001
  4.7389558e-001
  4.7733792e-001
  4.7791165e-001
  4.8135399e-001
  4.8594378e-001
  4.9110729e-001
  4.9454963e-001
  4.9512335e-001
  4.9569707e-001
  4.9627080e-001
  4.9454963e-001
  4.9799197e-001
  5.0143431e-001
  5.0200803e-001
  5.0200803e-001
  5.0200803e-001
  5.0200803e-001
  5.0086059e-001
  4.9741824e-001
  4.9913941e-001
  4.9741824e-001
  4.9856569e-001
  4.9684452e-001
  4.9627080e-001
  4.9454963e-001
  4.9454963e-001
  4.9340218e-001
  4.9282846e-001
  4.9512335e-001
  4.9454963e-001
  4.9627080e-001
  4.9282846e-001
  4.9397590e-001
  4.9168101e-001
  4.9053356e-001
  4.8995984e-001
  4.9110729e-001
  4.9225473e-001
  4.9569707e-001
  4.9569707e-001
  4.9799197e-001
  4.9799197e-001
  4.9799197e-001
  5.0200803e-001
  5.0315548e-001
  5.0717154e-001
  5.1176133e-001
  5.1462995e-001
  5.1462995e-001
  5.1520367e-001
  5.1233505e-001
  5.0946644e-001
  5.0946644e-001
  5.0602410e-001
  5.0659782e-001
  5.0659782e-001
  5.0545037e-001
  5.0258176e-001
  4.9741824e-001
  4.9397590e-001
  4.9454963e-001
  4.9569707e-001
  4.9741824e-001
  4.9627080e-001
  4.9856569e-001
  4.9741824e-001
  4.9741824e-001
  4.9627080e-001
  4.9454963e-001
  4.9799197e-001
  4.9971314e-001
  5.0086059e-001
  5.0028686e-001
  4.9971314e-001
  4.9856569e-001
  4.9627080e-001
  4.9741824e-001
  4.9684452e-001
  5.0086059e-001
  5.0028686e-001
  5.0372920e-001
  5.0487665e-001
  5.0315548e-001
  5.0200803e-001
  4.9913941e-001
  4.9913941e-001
  5.0258176e-001
  5.0086059e-001
  5.0315548e-001
  5.0659782e-001
  5.1118761e-001
  5.1979346e-001
  5.4216867e-001
  5.7946070e-001
  6.2880092e-001
  6.8904188e-001
  7.4297189e-001
  7.7165806e-001
  7.6534710e-001
  7.1944923e-001
  6.4888124e-001
  5.7544464e-001
  5.1520367e-001
  4.8823867e-001
  4.8422260e-001
  4.9282846e-001
  4.9913941e-001
  4.9799197e-001
  4.9627080e-001
  4.9053356e-001
  4.8537005e-001
  4.8307516e-001
  4.8651750e-001
  4.9053356e-001
  4.8995984e-001
  4.9340218e-001
  4.8938612e-001
  4.9110729e-001
  4.9110729e-001
  4.8938612e-001
  4.9340218e-001
  4.9225473e-001
  4.9282846e-001
  4.9282846e-001
  4.9225473e-001
  4.9282846e-001
  4.8938612e-001
  4.9168101e-001
  4.9168101e-001
  4.9282846e-001
  4.9397590e-001
  4.9627080e-001
  4.9282846e-001
  4.9225473e-001
  4.9282846e-001
  4.8881239e-001
  4.9168101e-001
  4.9225473e-001
  4.9397590e-001
  4.9225473e-001
  4.9340218e-001
  4.8651750e-001
  4.8651750e-001
  4.8307516e-001
  4.8250143e-001
  4.8709122e-001
  4.8422260e-001
  4.8594378e-001
  4.8709122e-001
  4.8250143e-001
  4.8135399e-001
  4.7905909e-001
  4.8192771e-001
  4.8192771e-001
  4.8537005e-001
  4.8938612e-001
  4.9053356e-001
  4.9225473e-001
  4.9569707e-001
  4.9627080e-001
  4.9971314e-001
  5.0200803e-001
  5.0717154e-001
  5.0717154e-001
  5.0889271e-001
  5.1004016e-001
  5.1004016e-001
  5.0889271e-001
  5.0602410e-001
  5.0774527e-001
  5.0946644e-001
  5.1118761e-001
  5.1233505e-001
  5.1176133e-001
  5.1233505e-001
  5.0774527e-001
  5.0717154e-001
  5.0946644e-001
  5.0889271e-001
  5.1004016e-001
  5.0889271e-001
  5.0774527e-001
  5.0946644e-001
  5.0774527e-001
  5.0545037e-001
  5.0659782e-001
  5.0774527e-001
  5.0602410e-001
  5.0774527e-001
  5.0430293e-001
  5.0831899e-001
  5.0659782e-001
  5.0774527e-001
  5.0659782e-001
  5.1061388e-001
  5.1635112e-001
  5.2036718e-001
  5.2438325e-001
  5.2495697e-001
  5.2954676e-001
  5.2897303e-001
  5.3298910e-001
  5.3069421e-001
  5.3298910e-001
  5.3069421e-001
  5.3356282e-001
  5.2897303e-001
  5.2667814e-001
  5.2610442e-001
  5.2438325e-001
  5.2495697e-001
  5.2380952e-001
  5.1921974e-001
  5.1749857e-001
  5.1405622e-001
  5.1348250e-001
  5.1118761e-001
  5.0946644e-001
  5.1061388e-001
  5.1061388e-001
  5.1118761e-001
  5.1233505e-001
  5.1348250e-001
  5.1577740e-001
  5.1118761e-001
  5.0889271e-001
  5.0717154e-001
  5.0946644e-001
  5.1118761e-001
  5.1290878e-001
  5.1118761e-001
  5.1176133e-001
  5.1118761e-001
  5.0889271e-001
  5.0831899e-001
  5.0545037e-001
  5.0602410e-001
  5.0602410e-001
  5.0602410e-001
  5.0602410e-001
  5.0831899e-001
  5.0430293e-001
  5.0487665e-001
  5.0659782e-001
  5.0946644e-001
  5.1921974e-001
  5.3757889e-001
  5.6052783e-001
  5.9265634e-001
  6.3683305e-001
  6.8961561e-001
  7.3321859e-001
  7.6018359e-001
  7.5846242e-001
  7.2805508e-001
  6.8100975e-001
  6.0814687e-001
  5.4790591e-001
  5.0889271e-001
  4.9684452e-001
  4.9799197e-001
  5.0200803e-001
  5.0717154e-001
  5.0602410e-001
  5.0200803e-001
  4.9913941e-001
  4.9282846e-001
  4.9569707e-001
  4.9454963e-001
  4.9741824e-001
  4.9684452e-001
  5.0258176e-001
  5.0315548e-001
  4.9971314e-001
  5.0200803e-001
  4.9971314e-001
  4.9971314e-001
  5.0086059e-001
  5.0028686e-001
  5.0086059e-001
  5.0200803e-001
  5.0200803e-001
  4.9971314e-001
  4.9913941e-001
  4.9971314e-001
  4.9684452e-001
  4.9856569e-001
  4.9856569e-001
  5.0086059e-001
  4.9971314e-001
  4.9512335e-001
  4.9627080e-001
  4.9397590e-001
  4.9168101e-001
  4.9454963e-001
  4.9512335e-001
  4.9512335e-001
  4.9454963e-001
  4.9225473e-001
  4.9282846e-001
  4.8823867e-001
  4.8881239e-001
  4.8709122e-001
  4.8881239e-001
  4.9053356e-001
  4.8881239e-001
  4.8938612e-001
  4.8537005e-001
  4.8651750e-001
  4.8823867e-001
  4.8823867e-001
  4.9225473e-001
  4.9627080e-001
  4.9913941e-001
  5.0200803e-001
  5.0430293e-001
  5.0430293e-001
  5.0659782e-001
  5.0831899e-001
  5.1061388e-001
  5.1348250e-001
  5.1520367e-001
  5.1692484e-001
  5.1577740e-001
  5.1577740e-001
  5.1290878e-001
  5.1176133e-001
  5.1348250e-001
  5.1635112e-001
  5.1749857e-001
  5.1749857e-001
  5.1749857e-001
  5.1520367e-001
  5.1176133e-001
  5.1233505e-001
  5.1176133e-001
  5.1348250e-001
  5.1348250e-001
  5.1348250e-001
  5.1233505e-001
  5.1118761e-001
  5.0717154e-001
  5.0717154e-001
  5.0717154e-001
  5.1004016e-001
  5.1290878e-001
  5.1520367e-001
  5.1692484e-001
  5.2036718e-001
  5.2323580e-001
  5.2380952e-001
  5.2380952e-001
  5.2839931e-001
  5.3356282e-001
  5.3585772e-001
  5.3872633e-001
  5.3528399e-001
  5.3757889e-001
  5.3184165e-001
  5.3069421e-001
  5.2725186e-001
  5.2667814e-001
  5.2553069e-001
  5.2495697e-001
  5.2036718e-001
  5.1749857e-001
  5.1348250e-001
  5.1348250e-001
  5.1118761e-001
  5.1176133e-001
  5.1176133e-001
  5.1462995e-001
  5.1462995e-001
  5.1176133e-001
  5.1118761e-001
  5.1176133e-001
  5.1118761e-001
  5.1233505e-001
  5.1462995e-001
  5.1405622e-001
  5.1462995e-001
  5.1176133e-001
  5.1118761e-001
  5.1061388e-001
  5.1118761e-001
  5.0889271e-001
  5.0889271e-001
  5.1061388e-001
  5.0889271e-001
  5.1118761e-001
  5.0889271e-001
  5.0659782e-001
  5.0372920e-001
  5.0545037e-001
  5.0831899e-001
  5.1004016e-001
  5.1233505e-001
  5.2553069e-001
  5.4733219e-001
  5.7946070e-001
  6.2593230e-001
  6.8043603e-001
  7.3379231e-001
  7.6419966e-001
  7.6592083e-001
  7.3608721e-001
  6.7928858e-001
  6.0929432e-001
  5.4503729e-001
  5.0717154e-001
  4.9053356e-001
  4.9340218e-001
  4.9799197e-001
  5.0200803e-001
  5.0200803e-001
  4.9799197e-001
  4.9397590e-001
  4.9053356e-001
  4.8938612e-001
  4.8995984e-001
  4.9168101e-001
  4.9340218e-001
  4.9799197e-001
  4.9799197e-001
  4.9397590e-001
  4.9340218e-001
  4.9282846e-001
  4.9340218e-001
  4.9340218e-001
  4.9225473e-001
  4.9454963e-001
  4.9168101e-001
  4.9110729e-001
  4.8823867e-001
  4.8594378e-001
  4.8651750e-001
  4.8594378e-001
  4.8537005e-001
  4.8823867e-001
  4.8651750e-001
  4.8651750e-001
  4.8192771e-001
  4.8250143e-001
  4.8078026e-001
  4.7791165e-001
  4.7905909e-001
  4.7733792e-001
  4.7791165e-001
  4.7905909e-001
  4.7676420e-001
  4.7561675e-001
  4.7389558e-001
  4.7446931e-001
  4.7561675e-001
  4.7676420e-001
  4.7733792e-001
  4.7676420e-001
  4.7676420e-001
  4.7848537e-001
  4.8078026e-001
  4.8192771e-001
  4.8479633e-001
  4.9110729e-001
  4.9340218e-001
  4.9627080e-001
  4.9799197e-001
  4.9627080e-001
  5.0143431e-001
  5.0258176e-001
  5.0487665e-001
  5.0602410e-001
  5.0946644e-001
  5.0946644e-001
  5.1176133e-001
  5.0946644e-001
  5.1118761e-001
  5.0889271e-001
  5.0831899e-001
  5.1176133e-001
  5.0831899e-001
  5.0774527e-001
  5.1004016e-001
  5.1061388e-001
  5.0659782e-001
  5.0717154e-001
  5.0831899e-001
  5.1004016e-001
  5.1118761e-001
  5.1118761e-001
  5.1176133e-001
  5.1176133e-001
  5.0717154e-001
  5.0717154e-001
  5.0372920e-001
  5.0717154e-001
  5.0774527e-001
  5.1118761e-001
  5.1520367e-001
  5.1692484e-001
  5.1462995e-001
  5.1692484e-001
  5.1692484e-001
  5.2094091e-001
  5.2610442e-001
  5.2954676e-001
  5.3241538e-001
  5.3413655e-001
  5.3700516e-001
  5.3643144e-001
  5.3643144e-001
  5.3528399e-001
  5.3069421e-001
  5.3069421e-001
  5.2954676e-001
  5.2897303e-001
  5.2782559e-001
  5.2094091e-001
  5.2036718e-001
  5.1577740e-001
  5.1290878e-001
  5.1520367e-001
  5.1520367e-001
  5.1635112e-001
  5.1807229e-001
  5.1405622e-001
  5.1290878e-001
  5.1233505e-001
  5.1290878e-001
  5.1176133e-001
  5.1462995e-001
  5.1635112e-001
  5.1405622e-001
  5.1692484e-001
  5.1348250e-001
  5.1118761e-001
  5.1233505e-001
  5.1405622e-001
  5.1462995e-001
  5.1462995e-001
  5.1233505e-001
  5.1118761e-001
  5.1004016e-001
  5.0717154e-001
  5.0774527e-001
  5.0659782e-001
  5.1118761e-001
  5.0831899e-001
  5.1004016e-001
  5.1176133e-001
  5.1692484e-001
  5.2954676e-001
  5.4962708e-001
  5.8347676e-001
  6.3224326e-001
  6.9076305e-001
  7.4354561e-001
  7.7223178e-001
  7.6878944e-001
  7.3608721e-001
  6.8387837e-001
  6.1216294e-001
  5.5249570e-001
  5.1692484e-001
  5.0315548e-001
  5.0545037e-001
  5.0889271e-001
  5.1118761e-001
  5.1233505e-001
  5.0717154e-001
  5.0487665e-001
  5.0602410e-001
  5.0602410e-001
  5.0717154e-001
  5.1061388e-001
  5.1061388e-001
  5.0774527e-001
  5.0831899e-001
  5.0774527e-001
  5.0717154e-001
  5.0717154e-001
  5.1004016e-001
  5.1004016e-001
  5.1004016e-001
  5.0717154e-001
  5.0717154e-001
  5.0372920e-001
  5.0831899e-001
  5.0889271e-001
  5.1176133e-001
  5.0889271e-001
  5.0889271e-001
  5.0717154e-001
  5.0200803e-001
  4.9971314e-001
  5.0372920e-001
  5.0372920e-001
  5.0545037e-001
  5.0602410e-001
  5.0315548e-001
  5.0086059e-001
  4.9799197e-001
  4.9627080e-001
  4.9627080e-001
  4.9397590e-001
  4.9512335e-001
  4.9512335e-001
  4.9569707e-001
  4.9110729e-001
  4.9053356e-001
  4.8995984e-001
  4.8995984e-001
  4.9110729e-001
  4.9168101e-001
  4.9454963e-001
  4.9512335e-001
  4.9799197e-001
  5.0086059e-001
  5.0200803e-001
  5.0430293e-001
  5.0659782e-001
  5.1004016e-001
  5.1176133e-001
  5.1176133e-001
  5.1176133e-001
  5.1405622e-001
  5.1004016e-001
  5.1118761e-001
  5.1118761e-001
  5.1290878e-001
  5.1405622e-001
  5.1692484e-001
  5.1520367e-001
  5.1577740e-001
  5.1348250e-001
  5.1176133e-001
  5.1118761e-001
  5.1462995e-001
  5.1405622e-001
  5.1462995e-001
  5.1635112e-001
  5.1635112e-001
  5.1290878e-001
  5.1348250e-001
  5.0946644e-001
  5.1118761e-001
  5.1290878e-001
  5.1348250e-001
  5.1635112e-001
  5.1921974e-001
  5.1635112e-001
  5.1692484e-001
  5.1749857e-001
  5.1864601e-001
  5.2266208e-001
  5.2839931e-001
  5.3241538e-001
  5.3356282e-001
  5.3585772e-001
  5.3298910e-001
  5.3298910e-001
  5.3298910e-001
  5.3184165e-001
  5.3184165e-001
  5.3069421e-001
  5.2725186e-001
  5.2782559e-001
  5.2208835e-001
  5.1807229e-001
  5.1807229e-001
  5.1692484e-001
  5.1807229e-001
  5.1864601e-001
  5.1979346e-001
  5.1864601e-001
  5.1921974e-001
  5.1577740e-001
  5.1692484e-001
  5.1749857e-001
  5.1692484e-001
  5.1979346e-001
  5.1979346e-001
  5.2036718e-001
  5.1692484e-001
  5.1577740e-001
  5.1462995e-001
  5.1405622e-001
  5.1577740e-001
  5.1807229e-001
  5.1749857e-001
  5.1807229e-001
  5.1807229e-001
  5.1348250e-001
  5.1176133e-001
  5.0889271e-001
  5.1290878e-001
  5.1462995e-001
  5.1577740e-001
  5.1807229e-001
  5.2036718e-001
  5.2839931e-001
  5.4388985e-001
  5.6913368e-001
  6.0929432e-001
  6.6322433e-001
  7.1830178e-001
  7.5329891e-001
  7.5674125e-001
  7.3321859e-001
  6.8043603e-001
  6.1732645e-001
  5.6110155e-001
  5.2266208e-001
  5.0659782e-001
  5.0487665e-001
  5.0946644e-001
  5.1290878e-001
  5.0831899e-001
  5.0430293e-001
  5.0200803e-001
  5.0028686e-001
  5.0315548e-001
  5.0545037e-001
  5.0946644e-001
  5.0602410e-001
  5.0659782e-001
  5.0545037e-001
  5.0487665e-001
  5.0200803e-001
  5.0602410e-001
  5.0545037e-001
  5.0717154e-001
  5.0659782e-001
  5.0659782e-001
  5.0487665e-001
  5.0545037e-001
  5.0315548e-001
  5.0372920e-001
  5.0430293e-001
  5.0659782e-001
  5.0659782e-001
  5.0602410e-001
  5.0487665e-001
  5.0315548e-001
  5.0143431e-001
  5.0143431e-001
  5.0200803e-001
  5.0659782e-001
  5.0487665e-001
  5.0200803e-001
  5.0086059e-001
  4.9856569e-001
  4.9741824e-001
  4.9741824e-001
  4.9684452e-001
  4.9512335e-001
  4.9856569e-001
  4.9569707e-001
  4.9569707e-001
  4.9340218e-001
  4.9512335e-001
  4.9627080e-001
  4.9512335e-001
  4.9913941e-001
  5.0258176e-001
  5.0545037e-001
  5.0889271e-001
  5.0831899e-001
  5.1004016e-001
  5.0946644e-001
  5.1290878e-001
  5.1577740e-001
  5.1749857e-001
  5.1921974e-001
  5.2036718e-001
  5.1921974e-001
  5.1462995e-001
  5.1520367e-001
  5.1577740e-001
  5.2036718e-001
  5.2036718e-001
  5.2036718e-001
  5.2036718e-001
  5.2036718e-001
  5.2036718e-001
  5.1979346e-001
  5.1864601e-001
  5.1921974e-001
  5.1921974e-001
  5.2323580e-001
  5.2036718e-001
  5.1749857e-001
  5.1807229e-001
  5.1577740e-001
  5.1692484e-001
  5.1520367e-001
  5.1692484e-001
  5.1692484e-001
  5.2036718e-001
  5.2151463e-001
  5.2380952e-001
  5.2208835e-001
  5.2553069e-001
  5.2782559e-001
  5.3069421e-001
  5.3241538e-001
  5.3585772e-001
  5.3700516e-001
  5.3700516e-001
  5.3184165e-001
  5.2897303e-001
  5.2782559e-001
  5.2553069e-001
  5.2667814e-001
  5.3012048e-001
  5.2553069e-001
  5.2208835e-001
  5.1864601e-001
  5.1290878e-001
  5.1462995e-001
  5.1692484e-001
  5.1749857e-001
  5.1864601e-001
  5.1692484e-001
  5.1635112e-001
  5.1520367e-001
  5.1348250e-001
  5.1290878e-001
  5.1290878e-001
  5.1520367e-001
  5.1520367e-001
  5.1692484e-001
  5.1520367e-001
  5.1635112e-001
  5.1405622e-001
  5.1233505e-001
  5.1176133e-001
  5.1118761e-001
  5.1176133e-001
  5.1462995e-001
  5.1290878e-001
  5.1520367e-001
  5.1348250e-001
  5.1233505e-001
  5.1118761e-001
  5.1118761e-001
  5.1061388e-001
  5.1004016e-001
  5.1807229e-001
  5.2667814e-001
  5.5020080e-001
  5.8519793e-001
  6.3683305e-001
  6.9305795e-001
  7.4297189e-001
  7.6477338e-001
  7.5444636e-001
  7.2174412e-001
  6.6724039e-001
  5.9839357e-001
  5.4331612e-001
  5.1004016e-001
  4.9913941e-001
  5.0028686e-001
  5.0602410e-001
  5.0659782e-001
  5.0545037e-001
  4.9971314e-001
  4.9741824e-001
  4.9569707e-001
  4.9569707e-001
  4.9627080e-001
  4.9627080e-001
  5.0028686e-001
  5.0028686e-001
  4.9684452e-001
  4.9684452e-001
  4.9569707e-001
  4.9741824e-001
  4.9684452e-001
  4.9627080e-001
  4.9971314e-001
  5.0028686e-001
  4.9627080e-001
  4.9741824e-001
  4.9340218e-001
  4.9454963e-001
  4.9512335e-001
  4.9684452e-001
  4.9741824e-001
  4.9512335e-001
  4.9454963e-001
  4.9340218e-001
  4.9053356e-001
  4.9053356e-001
  4.8766495e-001
  4.9110729e-001
  4.9225473e-001
  4.9053356e-001
  4.8938612e-001
  4.8823867e-001
  4.8594378e-001
  4.8594378e-001
  4.8479633e-001
  4.8422260e-001
  4.8594378e-001
  4.8594378e-001
  4.8766495e-001
  4.8422260e-001
  4.8479633e-001
  4.8364888e-001
  4.8537005e-001
  4.8938612e-001
  4.9110729e-001
  4.9340218e-001
  4.9741824e-001
  5.0086059e-001
  5.0200803e-001
  5.0430293e-001
  5.0487665e-001
  5.0831899e-001
  5.1176133e-001
  5.1233505e-001
  5.1520367e-001
  5.1348250e-001
  5.1520367e-001
  5.1520367e-001
  5.1577740e-001
  5.1635112e-001
  5.1635112e-001
  5.1692484e-001
  5.1577740e-001
  5.1520367e-001
  5.1577740e-001
  5.1176133e-001
  5.1118761e-001
  5.1176133e-001
  5.1176133e-001
  5.1577740e-001
  5.1520367e-001
  5.1520367e-001
  5.1290878e-001
  5.1290878e-001
  5.1290878e-001
  5.1004016e-001
  5.1405622e-001
  5.1405622e-001
  5.1807229e-001
  5.1692484e-001
  5.1807229e-001
  5.2036718e-001
  5.1807229e-001
  5.2094091e-001
  5.2036718e-001
  5.2380952e-001
  5.2839931e-001
  5.2897303e-001
  5.3241538e-001
  5.3471027e-001
  5.3356282e-001
  5.3528399e-001
  5.3528399e-001
  5.3643144e-001
  5.3700516e-001
  5.3471027e-001
  5.3241538e-001
  5.2782559e-001
  5.2667814e-001
  5.2495697e-001
  5.2323580e-001
  5.1807229e-001
  5.1979346e-001
  5.1635112e-001
  5.1749857e-001
  5.1864601e-001
  5.1807229e-001
  5.1692484e-001
  5.1348250e-001
  5.1290878e-001
  5.1692484e-001
  5.1635112e-001
  5.1807229e-001
  5.1921974e-001
  5.1692484e-001
  5.1577740e-001
  5.1462995e-001
  5.1348250e-001
  5.1692484e-001
  5.1749857e-001
  5.1692484e-001
  5.1692484e-001
  5.1635112e-001
  5.1520367e-001
  5.1462995e-001
  5.1233505e-001
  5.1290878e-001
  5.1462995e-001
  5.1692484e-001
  5.1405622e-001
  5.1520367e-001
  5.1118761e-001
  5.1233505e-001
  5.0889271e-001
  5.1405622e-001
  5.2380952e-001
  5.3987378e-001
  5.6511761e-001
  5.9667240e-001
  6.3970166e-001
  6.8961561e-001
  7.3608721e-001
  7.5846242e-001
  7.5502008e-001
  7.2174412e-001
  6.7527252e-001
  6.1101549e-001
  5.5479059e-001
  5.1749857e-001
  5.0028686e-001
  4.9913941e-001
  5.0372920e-001
  5.0831899e-001
  5.1061388e-001
  5.0602410e-001
  5.0602410e-001
  4.9913941e-001
  4.9856569e-001
  5.0086059e-001
  5.0086059e-001
  5.0602410e-001
  5.0659782e-001
  5.0889271e-001
  5.0774527e-001
  5.0659782e-001
  5.0545037e-001
  5.0545037e-001
  5.0545037e-001
  5.0659782e-001
  5.0774527e-001
  5.0831899e-001
  5.0602410e-001
  5.0430293e-001
  5.0315548e-001
  5.0487665e-001
  5.0430293e-001
  5.0430293e-001
  5.0545037e-001
  5.0487665e-001
  5.0372920e-001
  5.0430293e-001
  5.0200803e-001
  5.0200803e-001
  5.0086059e-001
  5.0143431e-001
  5.0258176e-001
  5.0086059e-001
  4.9799197e-001
  4.9799197e-001
  4.9512335e-001
  4.9397590e-001
  4.9397590e-001
  4.9225473e-001
  4.9569707e-001
  4.9627080e-001
  4.9340218e-001
  4.9340218e-001
  4.9512335e-001
  4.9282846e-001
  4.9282846e-001
  4.9282846e-001
  4.9627080e-001
  4.9856569e-001
  5.0086059e-001
  5.0487665e-001
  5.0889271e-001
  5.0659782e-001
  5.0946644e-001
  5.1233505e-001
  5.1348250e-001
  5.1749857e-001
  5.1692484e-001
  5.1807229e-001
  5.2208835e-001
  5.2036718e-001
  5.1807229e-001
  5.1749857e-001
  5.1807229e-001
  5.1864601e-001
  5.1864601e-001
  5.1921974e-001
  5.2094091e-001
  5.2208835e-001
  5.2094091e-001
  5.1749857e-001
  5.1749857e-001
  5.2036718e-001
  5.1864601e-001
  5.1979346e-001
  5.2036718e-001
  5.1577740e-001
  5.1635112e-001
  5.1807229e-001
  5.1520367e-001
  5.1921974e-001
  5.2036718e-001
  5.2495697e-001
  5.2553069e-001
  5.2897303e-001
  5.3126793e-001
  5.3184165e-001
  5.3298910e-001
  5.3528399e-001
  5.3815261e-001
  5.4044750e-001
  5.4274240e-001
  5.4044750e-001
  5.3872633e-001
  5.3298910e-001
  5.3241538e-001
  5.3126793e-001
  5.3126793e-001
  5.3298910e-001
  5.3126793e-001
  5.2782559e-001
  5.2323580e-001
  5.1921974e-001
  5.1864601e-001
  5.1749857e-001
  5.2094091e-001
  5.2151463e-001
  5.2151463e-001
  5.2036718e-001
  5.2208835e-001
  5.2208835e-001
  5.2036718e-001
  5.2036718e-001
  5.2036718e-001
  5.2208835e-001
  5.2208835e-001
  5.2208835e-001
  5.2553069e-001
  5.2380952e-001
  5.1979346e-001
  5.2036718e-001
  5.1864601e-001
  5.1979346e-001
  5.2094091e-001
  5.1921974e-001
  5.1921974e-001
  5.1921974e-001
  5.1749857e-001
  5.1520367e-001
  5.1348250e-001
  5.1348250e-001
  5.1692484e-001
  5.2036718e-001
  5.2667814e-001
  5.3872633e-001
  5.5938038e-001
  5.9323006e-001
  6.4371773e-001
  6.9363167e-001
  7.3608721e-001
  7.6018359e-001
  7.5100402e-001
  7.1371199e-001
  6.5174986e-001
  5.8462421e-001
  5.3241538e-001
  5.0774527e-001
  5.0430293e-001
  5.0831899e-001
  5.1290878e-001
  5.1061388e-001
  5.0946644e-001
  5.0487665e-001
  4.9799197e-001
  4.9971314e-001
  4.9856569e-001
  5.0200803e-001
  5.0315548e-001
  5.0545037e-001
  5.0372920e-001
  5.0315548e-001
  5.0086059e-001
  4.9913941e-001
  5.0143431e-001
  5.0200803e-001
  5.0143431e-001
  5.0430293e-001
  5.0372920e-001
  5.0200803e-001
  5.0028686e-001
  5.0086059e-001
  4.9799197e-001
  4.9799197e-001
  5.0028686e-001
  4.9856569e-001
  4.9741824e-001
  5.0086059e-001
  4.9799197e-001
  4.9569707e-001
  4.9340218e-001
  4.9512335e-001
  4.9397590e-001
  4.9741824e-001
  4.9569707e-001
  4.9397590e-001
  4.9225473e-001
  4.9110729e-001
  4.8938612e-001
  4.8995984e-001
  4.8881239e-001
  4.9053356e-001
  4.8823867e-001
  4.8938612e-001
  4.8823867e-001
  4.8651750e-001
  4.8823867e-001
  4.8938612e-001
  4.9110729e-001
  4.9627080e-001
  4.9856569e-001
  5.0200803e-001
  5.0200803e-001
  5.0545037e-001
  5.0659782e-001
  5.0602410e-001
  5.1061388e-001
  5.1233505e-001
  5.1348250e-001
  5.1577740e-001
  5.1635112e-001
  5.1405622e-001
  5.1520367e-001
  5.1233505e-001
  5.1520367e-001
  5.1749857e-001
  5.1921974e-001
  5.1979346e-001
  5.1577740e-001
  5.1692484e-001
  5.1405622e-001
  5.1348250e-001
  5.1520367e-001
  5.1405622e-001
  5.1692484e-001
  5.1692484e-001
  5.1520367e-001
  5.1462995e-001
  5.1577740e-001
  5.1233505e-001
  5.1348250e-001
  5.1405622e-001
  5.1692484e-001
  5.1807229e-001
  5.1921974e-001
  5.2094091e-001
  5.1807229e-001
  5.1921974e-001
  5.2094091e-001
  5.2323580e-001
  5.2954676e-001
  5.3012048e-001
  5.3126793e-001
  5.3298910e-001
  5.3471027e-001
  5.3700516e-001
  5.3815261e-001
  5.3413655e-001
  5.3241538e-001
  5.3471027e-001
  5.2954676e-001
  5.2839931e-001
  5.2954676e-001
  5.2667814e-001
  5.2380952e-001
  5.1921974e-001
  5.1864601e-001
  5.1864601e-001
  5.2266208e-001
  5.2266208e-001
  5.2323580e-001
  5.2036718e-001
  5.2151463e-001
  5.2036718e-001
  5.1921974e-001
  5.1921974e-001
  5.1749857e-001
  5.1749857e-001
  5.1807229e-001
  5.1807229e-001
  5.1405622e-001
  5.1462995e-001
  5.1577740e-001
  5.1462995e-001
  5.1807229e-001
  5.1749857e-001
  5.1864601e-001
  5.1635112e-001
  5.1577740e-001
  5.1577740e-001
  5.1118761e-001
  5.1462995e-001
  5.1577740e-001
  5.1348250e-001
  5.1405622e-001
  5.1462995e-001
  5.1577740e-001
  5.1462995e-001
  5.1979346e-001
  5.3643144e-001
  5.5938038e-001
  5.9437751e-001
  6.3798049e-001
  6.9477912e-001
  7.4297189e-001
  7.6477338e-001
  7.5329891e-001
  7.1772806e-001
  6.5978199e-001
  5.9781985e-001
  5.4733219e-001
  5.2036718e-001
  5.0487665e-001
  5.0659782e-001
  5.0946644e-001
  5.1176133e-001
  5.1118761e-001
  5.0831899e-001
  5.0774527e-001
  5.0717154e-001
  5.0831899e-001
  5.0659782e-001
  5.0946644e-001
  5.0946644e-001
  5.0831899e-001
  5.0774527e-001
  5.1004016e-001
  5.1118761e-001
  5.1290878e-001
  5.1176133e-001
  5.1118761e-001
  5.1176133e-001
  5.0545037e-001
  5.0717154e-001
  5.0774527e-001
  5.0889271e-001
  5.0831899e-001
  5.0889271e-001
  5.0430293e-001
  5.0659782e-001
  5.0487665e-001
  5.0487665e-001
  5.0545037e-001
  5.0602410e-001
  5.0774527e-001
  5.0717154e-001
  5.0545037e-001
  5.0200803e-001
  5.0086059e-001
  5.0200803e-001
  5.0258176e-001
  5.0258176e-001
  5.0200803e-001
  5.0315548e-001
  5.0372920e-001
  5.0086059e-001
  5.0028686e-001
  4.9627080e-001
  4.9856569e-001
  5.0086059e-001
  5.0086059e-001
  5.0372920e-001
  5.0315548e-001
  5.0372920e-001
  5.0315548e-001
  5.0889271e-001
  5.1176133e-001
  5.1462995e-001
  5.1864601e-001
  5.2094091e-001
  5.2151463e-001
  5.2266208e-001
  5.2036718e-001
  5.2151463e-001
  5.1979346e-001
  5.2151463e-001
  5.2553069e-001
  5.2553069e-001
  5.2323580e-001
  5.2610442e-001
  5.2266208e-001
  5.2036718e-001
  5.2036718e-001
  5.2094091e-001
  5.2094091e-001
  5.2208835e-001
  5.2151463e-001
  5.2094091e-001
  5.1921974e-001
  5.2036718e-001
  5.1749857e-001
  5.1921974e-001
  5.2036718e-001
  5.2323580e-001
  5.2438325e-001
  5.2495697e-001
  5.2323580e-001
  5.2151463e-001
  5.1979346e-001
  5.2438325e-001
  5.2839931e-001
  5.2954676e-001
  5.3471027e-001
  5.3585772e-001
  5.3815261e-001
  5.3528399e-001
  5.3872633e-001
  5.4044750e-001
  5.4274240e-001
  5.4274240e-001
  5.4102123e-001
  5.3872633e-001
  5.3815261e-001
  5.3815261e-001
  5.3413655e-001
  5.3298910e-001
  5.2839931e-001
  5.2782559e-001
  5.2553069e-001
  5.2610442e-001
  5.2725186e-001
  5.2553069e-001
  5.2438325e-001
  5.2380952e-001
  5.2438325e-001
  5.2380952e-001
  5.2610442e-001
  5.2553069e-001
  5.2495697e-001
  5.2380952e-001
  5.2151463e-001
  5.2266208e-001
  5.1979346e-001
  5.2208835e-001
  5.2323580e-001
  5.2495697e-001
  5.2495697e-001
  5.2495697e-001
  5.2151463e-001
  5.1864601e-001
  5.1807229e-001
  5.1749857e-001
  5.1807229e-001
  5.2036718e-001
  5.1979346e-001
  5.2094091e-001
  5.2208835e-001
  5.2839931e-001
  5.4274240e-001
  5.6569134e-001
  6.0470453e-001
  6.5519220e-001
  7.0510614e-001
  7.4411933e-001
  7.5387263e-001
  7.3264487e-001
  6.8559954e-001
  6.2363741e-001
  5.6282272e-001
  5.2380952e-001
  5.0889271e-001
  5.0545037e-001
  5.1004016e-001
  5.1118761e-001
  5.1004016e-001
  5.0717154e-001
  5.0430293e-001
  5.0545037e-001
  5.0602410e-001
  5.0717154e-001
  5.1004016e-001
  5.0717154e-001
  5.0717154e-001
  5.0659782e-001
  5.0545037e-001
  5.0487665e-001
  5.1118761e-001
  5.1004016e-001
  5.0774527e-001
  5.0946644e-001
  5.0545037e-001
  5.0315548e-001
  5.0200803e-001
  5.0602410e-001
  5.0659782e-001
  5.0774527e-001
  5.0946644e-001
  5.0831899e-001
  5.0487665e-001
  5.0430293e-001
  5.0200803e-001
  5.0200803e-001
  5.0258176e-001
  5.0258176e-001
  5.0258176e-001
  5.0143431e-001
  4.9971314e-001
  4.9627080e-001
  4.9569707e-001
  4.9512335e-001
  4.9627080e-001
  4.9799197e-001
  4.9856569e-001
  4.9741824e-001
  4.9741824e-001
  4.9913941e-001
  4.9569707e-001
  4.9512335e-001
  4.9799197e-001
  5.0200803e-001
  5.0372920e-001
  5.0946644e-001
  5.0946644e-001
  5.1233505e-001
  5.1577740e-001
  5.1635112e-001
  5.1807229e-001
  5.2266208e-001
  5.1979346e-001
  5.2208835e-001
  5.2094091e-001
  5.2266208e-001
  5.2151463e-001
  5.1864601e-001
  5.2036718e-001
  5.2036718e-001
  5.2323580e-001
  5.2495697e-001
  5.2323580e-001
  5.2495697e-001
  5.2266208e-001
  5.2094091e-001
  5.1864601e-001
  5.1807229e-001
  5.1979346e-001
  5.2094091e-001
  5.2151463e-001
  5.2094091e-001
  5.2094091e-001
  5.1864601e-001
  5.1577740e-001
  5.1462995e-001
  5.1577740e-001
  5.2036718e-001
  5.2036718e-001
  5.2094091e-001
  5.2036718e-001
  5.1921974e-001
  5.2266208e-001
  5.2323580e-001
  5.2667814e-001
  5.3012048e-001
  5.3298910e-001
  5.3700516e-001
  5.3528399e-001
  5.3413655e-001
  5.3528399e-001
  5.3298910e-001
  5.3356282e-001
  5.3126793e-001
  5.3012048e-001
  5.3126793e-001
  5.2954676e-001
  5.2667814e-001
  5.2036718e-001
  5.1921974e-001
  5.2036718e-001
  5.2094091e-001
  5.2094091e-001
  5.2208835e-001
  5.2323580e-001
  5.2151463e-001
  5.1807229e-001
  5.1864601e-001
  5.1921974e-001
  5.2151463e-001
  5.2151463e-001
  5.2438325e-001
  5.2495697e-001
  5.2151463e-001
  5.1979346e-001
  5.1921974e-001
  5.1807229e-001
  5.1979346e-001
  5.2208835e-001
  5.2323580e-001
  5.2323580e-001
  5.2036718e-001
  5.2094091e-001
  5.1921974e-001
  5.1692484e-001
  5.1807229e-001
  5.1921974e-001
  5.2036718e-001
  5.1921974e-001
  5.2266208e-001
  5.2495697e-001
  5.3872633e-001
  5.5880666e-001
  5.9208262e-001
  6.4027539e-001
  6.9764773e-001
  7.4584050e-001
  7.6993689e-001
  7.5960987e-001
  7.1830178e-001
  6.5576592e-001
  5.8405049e-001
  5.3815261e-001
  5.1405622e-001
  5.0659782e-001
  5.1004016e-001
  5.1462995e-001
  5.1462995e-001
  5.1118761e-001
  5.0659782e-001
  5.0315548e-001
  5.0430293e-001
  5.0717154e-001
  5.0889271e-001
  5.1118761e-001
  5.0889271e-001
  5.0889271e-001
  5.0602410e-001
  5.0545037e-001
  5.0545037e-001
  5.0831899e-001
  5.0831899e-001
  5.0659782e-001
  5.0659782e-001
  5.0258176e-001
  5.0430293e-001
  5.0200803e-001
  5.0086059e-001
  4.9971314e-001
  5.0086059e-001
  5.0258176e-001
  5.0200803e-001
  4.9799197e-001
  4.9627080e-001
  4.9340218e-001
  4.9684452e-001
  4.9741824e-001
  4.9799197e-001
  4.9684452e-001
  4.9627080e-001
  4.9512335e-001
  4.9340218e-001
  4.9454963e-001
  4.9397590e-001
  4.9168101e-001
  4.9110729e-001
  4.9225473e-001
  4.9168101e-001
  4.9053356e-001
  4.9053356e-001
  4.9053356e-001
  4.8938612e-001
  4.9282846e-001
  4.9627080e-001
  5.0028686e-001
  5.0200803e-001
  5.0372920e-001
  5.0659782e-001
  5.0774527e-001
  5.1004016e-001
  5.1290878e-001
  5.1807229e-001
  5.1864601e-001
  5.2036718e-001
  5.2323580e-001
  5.2151463e-001
  5.2094091e-001
  5.2323580e-001
  5.2266208e-001
  5.2610442e-001
  5.2553069e-001
  5.2610442e-001
  5.2495697e-001
  5.2438325e-001
  5.2208835e-001
  5.2094091e-001
  5.2208835e-001
  5.2266208e-001
  5.2266208e-001
  5.2380952e-001
  5.2323580e-001
  5.2495697e-001
  5.2036718e-001
  5.2323580e-001
  5.2208835e-001
  5.2208835e-001
  5.2438325e-001
  5.2495697e-001
  5.2725186e-001
  5.2610442e-001
  5.2553069e-001
  5.2438325e-001
  5.2438325e-001
  5.2610442e-001
  5.3012048e-001
  5.3528399e-001
  5.3700516e-001
  5.3815261e-001
  5.3987378e-001
  5.4102123e-001
  5.4216867e-001
  5.4503729e-001
  5.4503729e-001
  5.4388985e-001
  5.4274240e-001
  5.4274240e-001
  5.4044750e-001
  5.3643144e-001
  5.3298910e-001
  5.3241538e-001
  5.2897303e-001
  5.2782559e-001
  5.2610442e-001
  5.2782559e-001
  5.2782559e-001
  5.3012048e-001
  5.2438325e-001
  5.2553069e-001
  5.2438325e-001
  5.2495697e-001
  5.2725186e-001
  5.2667814e-001
  5.2553069e-001
  5.2380952e-001
  5.2553069e-001
  5.2380952e-001
  5.2323580e-001
  5.2380952e-001
  5.2380952e-001
  5.2380952e-001
  5.2553069e-001
  5.2438325e-001
  5.2380952e-001
  5.2151463e-001
  5.2094091e-001
  5.2036718e-001
  5.1864601e-001
  5.2036718e-001
  5.1864601e-001
  5.1979346e-001
  5.1921974e-001
  5.1864601e-001
  5.2036718e-001
  5.2725186e-001
  5.3930006e-001
  5.5995410e-001
  5.9667240e-001
  6.3740677e-001
  6.8961561e-001
  7.3264487e-001
  7.5616753e-001
  7.5329891e-001
  7.2862880e-001
  6.7986231e-001
  6.1445783e-001
  5.5651176e-001
  5.2151463e-001
  5.0946644e-001
  5.0946644e-001
  5.1635112e-001
  5.1921974e-001
  5.1749857e-001
  5.1692484e-001
  5.1462995e-001
  5.1290878e-001
  5.1233505e-001
  5.1118761e-001
  5.1176133e-001
  5.1290878e-001
  5.1520367e-001
  5.1635112e-001
  5.1462995e-001
  5.1577740e-001
  5.1577740e-001
  5.1577740e-001
  5.1405622e-001
  5.1118761e-001
  5.1405622e-001
  5.1348250e-001
  5.1577740e-001
  5.1462995e-001
  5.1462995e-001
  5.1118761e-001
  5.0946644e-001
  5.0831899e-001
  5.0946644e-001
  5.1004016e-001
  5.1348250e-001
  5.1118761e-001
  5.1233505e-001
  5.0831899e-001
  5.0774527e-001
  5.0831899e-001
  5.0889271e-001
  5.0946644e-001
  5.0831899e-001
  5.0889271e-001
  5.0602410e-001
  5.0430293e-001
  5.0258176e-001
  4.9799197e-001
  4.9971314e-001
  5.0028686e-001
  5.0315548e-001
  5.0315548e-001
  5.0372920e-001
  5.0258176e-001
  5.0258176e-001
  5.0200803e-001
  5.0602410e-001
  5.0774527e-001
  5.1233505e-001
  5.1520367e-001
  5.1921974e-001
  5.2036718e-001
  5.1807229e-001
  5.1807229e-001
  5.2094091e-001
  5.2323580e-001
  5.2610442e-001
  5.2667814e-001
  5.2839931e-001
  5.2725186e-001
  5.2610442e-001
  5.2380952e-001
  5.2495697e-001
  5.2323580e-001
  5.2036718e-001
  5.2553069e-001
  5.2782559e-001
  5.2782559e-001
  5.2725186e-001
  5.2208835e-001
  5.2323580e-001
  5.2036718e-001
  5.2323580e-001
  5.2438325e-001
  5.2495697e-001
  5.2380952e-001
  5.2495697e-001
  5.2610442e-001
  5.2495697e-001
  5.2495697e-001
  5.2667814e-001
  5.2839931e-001
  5.3298910e-001
  5.3585772e-001
  5.3872633e-001
  5.3815261e-001
  5.4044750e-001
  5.4159495e-001
  5.3987378e-001
  5.3930006e-001
  5.3872633e-001
  5.3987378e-001
  5.4159495e-001
  5.3987378e-001
  5.3815261e-001
  5.3413655e-001
  5.3126793e-001
  5.2782559e-001
  5.2954676e-001
  5.2725186e-001
  5.3184165e-001
  5.2897303e-001
  5.2954676e-001
  5.2667814e-001
  5.2495697e-001
  5.2782559e-001
  5.2839931e-001
  5.2610442e-001
  5.2897303e-001
  5.2553069e-001
  5.2667814e-001
  5.2438325e-001
  5.2553069e-001
  5.2323580e-001
  5.2380952e-001
  5.2380952e-001
  5.2380952e-001
  5.2610442e-001
  5.2495697e-001
  5.2495697e-001
  5.2323580e-001
  5.2151463e-001
  5.2036718e-001
  5.2323580e-001
  5.2208835e-001
  5.2380952e-001
  5.2553069e-001
  5.2495697e-001
  5.2839931e-001
  5.4274240e-001
  5.6569134e-001
  6.0011474e-001
  6.4429145e-001
  6.9822146e-001
  7.4928285e-001
  7.7739530e-001
  7.7280551e-001
  7.3493976e-001
  6.7641997e-001
  6.0986804e-001
  5.5249570e-001
  5.2151463e-001
  5.1061388e-001
  5.1061388e-001
  5.1348250e-001
  5.1921974e-001
  5.1405622e-001
  5.1118761e-001
  5.1004016e-001
  5.0889271e-001
  5.0946644e-001
  5.0946644e-001
  5.1118761e-001
  5.0774527e-001
  5.1061388e-001
  5.0831899e-001
  5.1004016e-001
  5.1061388e-001
  5.1290878e-001
  5.1118761e-001
  5.0831899e-001
  5.0487665e-001
  5.0200803e-001
  5.0086059e-001
  5.0200803e-001
  5.0200803e-001
  5.0545037e-001
  5.0487665e-001
  5.0487665e-001
  5.0143431e-001
  5.0086059e-001
  5.0028686e-001
  5.0200803e-001
  5.0258176e-001
  4.9913941e-001
  5.0200803e-001
  4.9856569e-001
  4.9684452e-001
  4.9397590e-001
  4.9397590e-001
  4.9397590e-001
  4.9397590e-001
  4.9512335e-001
  4.9569707e-001
  4.9053356e-001
  4.9110729e-001
  4.8651750e-001
  4.8766495e-001
  4.8823867e-001
  4.8881239e-001
  4.8881239e-001
  4.9282846e-001
  4.9397590e-001
  4.9627080e-001
  4.9741824e-001
  4.9856569e-001
  5.0258176e-001
  5.0717154e-001
  5.0889271e-001
  5.1577740e-001
  5.1692484e-001
  5.1921974e-001
  5.1807229e-001
  5.1577740e-001
  5.1635112e-001
  5.1577740e-001
  5.1921974e-001
  5.2094091e-001
  5.2208835e-001
  5.2323580e-001
  5.2208835e-001
  5.2094091e-001
  5.1749857e-001
  5.1462995e-001
  5.1462995e-001
  5.1807229e-001
  5.1921974e-001
  5.1864601e-001
  5.1749857e-001
  5.1749857e-001
  5.1692484e-001
  5.1577740e-001
  5.1405622e-001
  5.1749857e-001
  5.1635112e-001
  5.1864601e-001
  5.2094091e-001
  5.2151463e-001
  5.1979346e-001
  5.1864601e-001
  5.1979346e-001
  5.2380952e-001
  5.2553069e-001
  5.2667814e-001
  5.3184165e-001
  5.3298910e-001
  5.3413655e-001
  5.3585772e-001
  5.3700516e-001
  5.4388985e-001
  5.4618474e-001
  5.4561102e-001
  5.4446357e-001
  5.3987378e-001
  5.3528399e-001
  5.3241538e-001
  5.3069421e-001
  5.3069421e-001
  5.3184165e-001
  5.2839931e-001
  5.2553069e-001
  5.2151463e-001
  5.2094091e-001
  5.2036718e-001
  5.1864601e-001
  5.1864601e-001
  5.1864601e-001
  5.1979346e-001
  5.2094091e-001
  5.2266208e-001
  5.2094091e-001
  5.1864601e-001
  5.1979346e-001
  5.2036718e-001
  5.2036718e-001
  5.2036718e-001
  5.2380952e-001
  5.2151463e-001
  5.2208835e-001
  5.2151463e-001
  5.1921974e-001
  5.1921974e-001
  5.1921974e-001
  5.2208835e-001
  5.2495697e-001
  5.2094091e-001
  5.2094091e-001
  5.2151463e-001
  5.2151463e-001
  5.1692484e-001
  5.1749857e-001
  5.1635112e-001
  5.2151463e-001
  5.2782559e-001
  5.3930006e-001
  5.6339644e-001
  6.0355709e-001
  6.5174986e-001
  7.0912220e-001
  7.5788870e-001
  7.8600115e-001
  7.8600115e-001
  7.5674125e-001
  7.0051635e-001
  6.2707975e-001
  5.5765921e-001
  5.2094091e-001
  5.0717154e-001
  5.0889271e-001
  5.1348250e-001
  5.1635112e-001
  5.1405622e-001
  5.0946644e-001
  5.0200803e-001
  5.0258176e-001
  5.0200803e-001
  5.0315548e-001
  5.0602410e-001
  5.0774527e-001
  5.1118761e-001
  5.1348250e-001
  5.0889271e-001
  5.0831899e-001
  5.0545037e-001
  5.0889271e-001
  5.0487665e-001
  5.0946644e-001
  5.0659782e-001
  5.1004016e-001
  5.0889271e-001
  5.0659782e-001
  5.0372920e-001
  5.0430293e-001
  5.0602410e-001
  5.0717154e-001
  5.0659782e-001
  5.0831899e-001
  5.0659782e-001
  5.0315548e-001
  5.0258176e-001
  4.9856569e-001
  5.0028686e-001
  5.0200803e-001
  5.0315548e-001
  5.0315548e-001
  5.0028686e-001
  4.9627080e-001
  4.9569707e-001
  4.9627080e-001
  4.9569707e-001
  4.9569707e-001
  4.9454963e-001
  4.9512335e-001
  4.9856569e-001
  4.9282846e-001
  4.9397590e-001
  4.9684452e-001
  4.9913941e-001
  5.0200803e-001
  5.0659782e-001
  5.0946644e-001
  5.1176133e-001
  5.1577740e-001
  5.1807229e-001
  5.1635112e-001
  5.1807229e-001
  5.1921974e-001
  5.2208835e-001
  5.2553069e-001
  5.2610442e-001
  5.2495697e-001
  5.2495697e-001
  5.1864601e-001
  5.2036718e-001
  5.2495697e-001
  5.2610442e-001
  5.2553069e-001
  5.2610442e-001
  5.2266208e-001
  5.2380952e-001
  5.2266208e-001
  5.2208835e-001
  5.2036718e-001
  5.2438325e-001
  5.2380952e-001
  5.2495697e-001
  5.2266208e-001
  5.2208835e-001
  5.1864601e-001
  5.2094091e-001
  5.2094091e-001
  5.2323580e-001
  5.2553069e-001
  5.2610442e-001
  5.2897303e-001
  5.3012048e-001
  5.2954676e-001
  5.3471027e-001
  5.3471027e-001
  5.3872633e-001
  5.4274240e-001
  5.4503729e-001
  5.4847963e-001
  5.4905336e-001
  5.5020080e-001
  5.4905336e-001
  5.4388985e-001
  5.4102123e-001
  5.4159495e-001
  5.4446357e-001
  5.4503729e-001
  5.4331612e-001
  5.3872633e-001
  5.3413655e-001
  5.2954676e-001
  5.2782559e-001
  5.2954676e-001
  5.3241538e-001
  5.3184165e-001
  5.3012048e-001
  5.2782559e-001
  5.2323580e-001
  5.2094091e-001
  5.2266208e-001
  5.2380952e-001
  5.2208835e-001
  5.2151463e-001
  5.2036718e-001
  5.1692484e-001
  5.1635112e-001
  5.1348250e-001
  5.1290878e-001
  5.1176133e-001
  5.1405622e-001
  5.1290878e-001
  5.1462995e-001
  5.1807229e-001
  5.1577740e-001
  5.1692484e-001
  5.1749857e-001
  5.1290878e-001
  5.1290878e-001
  5.1290878e-001
  5.1520367e-001
  5.1348250e-001
  5.1807229e-001
  5.2782559e-001
  5.4675846e-001
  5.7142857e-001
  6.0872060e-001
  6.5748709e-001
  7.1026965e-001
  7.5329891e-001
  7.6362593e-001
  7.4125072e-001
  6.9248422e-001
  6.2822719e-001
  5.5880666e-001
  5.1118761e-001
  4.8537005e-001
  4.8192771e-001
  4.8479633e-001
  4.9110729e-001
  4.9282846e-001
  4.8594378e-001
  4.8250143e-001
  4.8192771e-001
  4.8651750e-001
  4.8709122e-001
  4.8881239e-001
  4.9053356e-001
  4.9168101e-001
  4.9053356e-001
  4.9282846e-001
  4.9225473e-001
  4.9856569e-001
  4.9856569e-001
  4.9856569e-001
  4.9684452e-001
  4.9856569e-001
  4.9684452e-001
  4.9971314e-001
  4.9684452e-001
  5.0028686e-001
  5.0086059e-001
  5.0143431e-001
  5.0200803e-001
  5.0315548e-001
  4.9799197e-001
  4.9971314e-001
  4.9741824e-001
  4.9741824e-001
  5.0200803e-001
  5.0200803e-001
  5.0028686e-001
  5.0143431e-001
  4.9397590e-001
  4.9397590e-001
  4.9340218e-001
  4.9512335e-001
  4.9282846e-001
  4.9454963e-001
  4.9340218e-001
  4.9168101e-001
  4.9110729e-001
  4.8881239e-001
  4.8651750e-001
  4.8422260e-001
  4.8766495e-001
  4.8881239e-001
  4.8995984e-001
  4.9282846e-001
  4.9454963e-001
  4.9512335e-001
  5.0028686e-001
  5.0200803e-001
  5.0774527e-001
  5.1061388e-001
  5.1405622e-001
  5.1577740e-001
  5.1577740e-001
  5.1635112e-001
  5.1635112e-001
  5.1577740e-001
  5.1577740e-001
  5.1635112e-001
  5.1749857e-001
  5.1979346e-001
  5.2036718e-001
  5.1979346e-001
  5.1807229e-001
  5.1692484e-001
  5.1807229e-001
  5.1921974e-001
  5.1921974e-001
  5.1979346e-001
  5.1749857e-001
  5.2036718e-001
  5.1692484e-001
  5.1635112e-001
  5.1692484e-001
  5.1290878e-001
  5.1405622e-001
  5.1749857e-001
  5.1807229e-001
  5.2036718e-001
  5.1749857e-001
  5.1348250e-001
  5.1405622e-001
  5.1290878e-001
  5.1749857e-001
  5.2094091e-001
  5.2380952e-001
  5.2610442e-001
  5.2610442e-001
  5.2610442e-001
  5.2897303e-001
  5.3012048e-001
  5.3471027e-001
  5.3872633e-001
  5.3872633e-001
  5.4044750e-001
  5.4216867e-001
  5.3757889e-001
  5.3356282e-001
  5.3184165e-001
  5.3126793e-001
  5.3298910e-001
  5.3184165e-001
  5.2667814e-001
  5.2725186e-001
  5.2208835e-001
  5.1864601e-001
  5.1864601e-001
  5.2036718e-001
  5.2036718e-001
  5.1864601e-001
  5.1749857e-001
  5.1749857e-001
  5.1921974e-001
  5.1577740e-001
  5.1405622e-001
  5.1290878e-001
  5.1290878e-001
  5.1462995e-001
  5.1577740e-001
  5.1290878e-001
  5.1176133e-001
  5.0889271e-001
  5.0831899e-001
  5.0946644e-001
  5.1118761e-001
  5.0946644e-001
  5.1061388e-001
  5.1004016e-001
  5.0946644e-001
  5.0602410e-001
  5.0659782e-001
  5.0258176e-001
  5.0659782e-001
  5.0774527e-001
  5.1462995e-001
  5.2725186e-001
  5.4446357e-001
  5.7601836e-001
  6.2535858e-001
  6.8215720e-001
  7.4297189e-001
  7.8485370e-001
  7.9862306e-001
  7.7969019e-001
  7.3379231e-001
  6.6092943e-001
  5.8749283e-001
  5.2725186e-001
  4.9741824e-001
  4.9512335e-001
  4.9856569e-001
  5.0545037e-001
  5.0487665e-001
  5.0200803e-001
  4.9512335e-001
  4.9225473e-001
  4.9282846e-001
  4.9110729e-001
  4.9454963e-001
  4.9627080e-001
  4.9397590e-001
  4.9569707e-001
  4.9569707e-001
  4.9282846e-001
  4.9110729e-001
  4.8995984e-001
  4.9397590e-001
  4.9454963e-001
  4.9512335e-001
  4.9512335e-001
  4.9454963e-001
  4.9110729e-001
  4.8938612e-001
  4.9053356e-001
  4.8938612e-001
  4.8938612e-001
  4.8766495e-001
  4.8823867e-001
  4.8938612e-001
  4.8537005e-001
  4.8364888e-001
  4.8537005e-001
  4.8364888e-001
  4.8307516e-001
  4.8364888e-001
  4.8307516e-001
  4.8250143e-001
  4.8078026e-001
  4.7733792e-001
  4.7676420e-001
  4.7389558e-001
  4.7676420e-001
  4.7848537e-001
  4.7791165e-001
  4.7963282e-001
  4.7733792e-001
  4.7733792e-001
  4.8020654e-001
  4.8192771e-001
  4.8709122e-001
  4.9340218e-001
  4.9856569e-001
  5.0143431e-001
  5.0258176e-001
  5.0659782e-001
  5.0545037e-001
  5.0946644e-001
  5.0946644e-001
  5.1118761e-001
  5.1290878e-001
  5.1462995e-001
  5.1635112e-001
  5.1462995e-001
  5.1520367e-001
  5.1577740e-001
  5.1348250e-001
  5.1405622e-001
  5.1520367e-001
  5.1348250e-001
  5.1233505e-001
  5.1061388e-001
  5.0831899e-001
  5.0774527e-001
  5.0717154e-001
  5.0889271e-001
  5.0946644e-001
  5.1176133e-001
  5.1061388e-001
  5.1233505e-001
  5.1061388e-001
  5.1118761e-001
  5.1061388e-001
  5.1176133e-001
  5.1348250e-001
  5.1692484e-001
  5.1864601e-001
  5.1979346e-001
  5.1807229e-001
  5.2151463e-001
  5.2323580e-001
  5.2610442e-001
  5.3126793e-001
  5.3298910e-001
  5.3757889e-001
  5.3987378e-001
  5.3815261e-001
  5.3872633e-001
  5.3700516e-001
  5.3413655e-001
  5.3298910e-001
  5.3528399e-001
  5.3241538e-001
  5.3298910e-001
  5.3012048e-001
  5.2438325e-001
  5.1921974e-001
  5.1864601e-001
  5.1692484e-001
  5.1807229e-001
  5.2094091e-001
  5.1979346e-001
  5.1749857e-001
  5.1520367e-001
  5.1462995e-001
  5.1290878e-001
  5.1462995e-001
  5.1577740e-001
  5.1635112e-001
  5.2036718e-001
  5.2266208e-001
  5.2208835e-001
  5.1864601e-001
  5.1635112e-001
  5.1520367e-001
  5.1348250e-001
  5.1462995e-001
  5.1807229e-001
  5.1520367e-001
  5.1692484e-001
  5.1462995e-001
  5.1061388e-001
  5.1004016e-001
  5.1004016e-001
  5.1405622e-001
  5.1462995e-001
  5.1635112e-001
  5.2094091e-001
  5.2954676e-001
  5.4331612e-001
  5.6913368e-001
  6.0986804e-001
  6.6322433e-001
  7.2403901e-001
  7.8026391e-001
  8.0493402e-001
  8.0436030e-001
  7.7452668e-001
  7.2461274e-001
  6.5748709e-001
  5.8806655e-001
  5.3815261e-001
  5.1233505e-001
  5.0774527e-001
  5.0946644e-001
  5.0717154e-001
  5.0372920e-001
  5.0086059e-001
  4.9856569e-001
  4.9741824e-001
  5.0028686e-001
  5.0602410e-001
  5.0717154e-001
  5.0946644e-001
  5.1004016e-001
  5.0889271e-001
  5.0717154e-001
  5.0659782e-001
  5.0659782e-001
  5.0774527e-001
  5.0659782e-001
  5.0200803e-001
  5.0143431e-001
  5.0086059e-001
  4.9684452e-001
  4.9741824e-001
  5.0028686e-001
  4.9913941e-001
  4.9799197e-001
  4.9569707e-001
  4.9282846e-001
  4.8995984e-001
  4.8881239e-001
  4.9110729e-001
  4.9282846e-001
  4.9053356e-001
  4.8995984e-001
  4.9053356e-001
  4.8766495e-001
  4.8250143e-001
  4.8078026e-001
  4.8192771e-001
  4.8422260e-001
  4.8479633e-001
  4.8537005e-001
  4.8479633e-001
  4.8364888e-001
  4.8020654e-001
  4.7963282e-001
  4.8307516e-001
  4.8364888e-001
  4.8479633e-001
  4.8537005e-001
  4.8422260e-001
  4.8709122e-001
  4.8938612e-001
  4.9569707e-001
  5.0028686e-001
  5.0602410e-001
  5.1290878e-001
  5.1462995e-001
  5.1979346e-001
  5.2380952e-001
  5.2151463e-001
  5.2438325e-001
  5.2266208e-001
  5.2266208e-001
  5.2495697e-001
  5.2610442e-001
  5.2839931e-001
  5.2725186e-001
  5.2897303e-001
  5.2438325e-001
  5.2380952e-001
  5.2266208e-001
  5.2495697e-001
  5.2553069e-001
  5.2610442e-001
  5.2610442e-001
  5.2553069e-001
  5.2553069e-001
  5.2380952e-001
  5.2266208e-001
  5.2897303e-001
  5.2954676e-001
  5.3069421e-001
  5.3585772e-001
  5.3585772e-001
  5.3643144e-001
  5.3757889e-001
  5.3930006e-001
  5.4388985e-001
  5.4733219e-001
  5.5134825e-001
  5.5306942e-001
  5.5765921e-001
  5.5479059e-001
  5.5593804e-001
  5.5364314e-001
  5.5077453e-001
  5.4733219e-001
  5.4618474e-001
  5.4388985e-001
  5.4503729e-001
  5.4446357e-001
  5.3987378e-001
  5.3757889e-001
  5.3585772e-001
  5.3585772e-001
  5.3987378e-001
  5.3930006e-001
  5.4044750e-001
  5.4159495e-001
  5.4159495e-001
  5.3700516e-001
  5.3700516e-001
  5.3757889e-001
  5.3872633e-001
  5.3872633e-001
  5.3930006e-001
  5.3872633e-001
  5.3700516e-001
  5.3298910e-001
  5.3356282e-001
  5.3241538e-001
  5.3184165e-001
  5.3184165e-001
  5.3298910e-001
  5.3298910e-001
  5.3126793e-001
  5.2610442e-001
  5.2553069e-001
  5.2323580e-001
  5.2380952e-001
  5.2553069e-001
  5.2782559e-001
  5.3126793e-001
  5.3930006e-001
  5.5651176e-001
  5.8347676e-001
  6.2650602e-001
  6.8043603e-001
  7.4584050e-001
  7.9116466e-001
  8.0665519e-001
  7.8944349e-001
  7.4297189e-001
  6.7756741e-001
  6.0872060e-001
  5.5192197e-001
  5.2610442e-001
  5.1635112e-001
  5.1692484e-001
  5.1921974e-001
  5.2094091e-001
  5.1520367e-001
  5.0717154e-001
  5.0372920e-001
  5.0372920e-001
  5.0487665e-001
  5.0602410e-001
  5.0889271e-001
  5.0831899e-001
  5.0889271e-001
  5.0774527e-001
  5.0717154e-001
  5.0774527e-001
  5.0717154e-001
  5.0831899e-001
  5.0831899e-001
  5.0831899e-001
  5.0659782e-001
  5.0717154e-001
  5.0372920e-001
  5.0315548e-001
  5.0315548e-001
  5.0430293e-001
  5.0487665e-001
  5.0487665e-001
  5.0315548e-001
  5.0086059e-001
  5.0200803e-001
  4.9856569e-001
  4.9741824e-001
  4.9741824e-001
  5.0200803e-001
  5.0086059e-001
  5.0028686e-001
  4.9627080e-001
  4.9397590e-001
  4.9225473e-001
  4.9168101e-001
  4.9053356e-001
  4.9397590e-001
  4.9282846e-001
  4.9282846e-001
  4.9168101e-001
  4.9053356e-001
  4.9053356e-001
  4.9397590e-001
  4.9741824e-001
  5.0200803e-001
  5.0430293e-001
  5.0889271e-001
  5.1405622e-001
  5.1577740e-001
  5.1749857e-001
  5.2036718e-001
  5.2380952e-001
  5.2725186e-001
  5.2954676e-001
  5.3298910e-001
  5.3184165e-001
  5.3069421e-001
  5.2725186e-001
  5.3069421e-001
  5.2954676e-001
  5.3298910e-001
  5.3528399e-001
  5.3471027e-001
  5.3585772e-001
  5.3585772e-001
  5.2782559e-001
  5.2954676e-001
  5.2954676e-001
  5.2897303e-001
  5.3413655e-001
  5.3413655e-001
  5.3356282e-001
  5.3413655e-001
  5.3012048e-001
  5.2954676e-001
  5.3012048e-001
  5.3012048e-001
  5.3298910e-001
  5.2954676e-001
  5.3413655e-001
  5.3585772e-001
  5.3471027e-001
  5.3643144e-001
  5.3413655e-001
  5.3757889e-001
  5.3987378e-001
  5.4446357e-001
  5.5134825e-001
  5.5134825e-001
  5.5421687e-001
  5.5020080e-001
  5.5077453e-001
  5.4847963e-001
  5.4790591e-001
  5.4331612e-001
  5.4503729e-001
  5.4388985e-001
  5.4331612e-001
  5.3815261e-001
  5.3184165e-001
  5.3012048e-001
  5.2954676e-001
  5.2725186e-001
  5.2839931e-001
  5.2839931e-001
  5.2897303e-001
  5.3069421e-001
  5.2610442e-001
  5.2782559e-001
  5.2725186e-001
  5.2725186e-001
  5.2954676e-001
  5.3069421e-001
  5.2954676e-001
  5.3012048e-001
  5.2725186e-001
  5.2839931e-001
  5.2380952e-001
  5.2725186e-001
  5.2782559e-001
  5.2839931e-001
  5.3069421e-001
  5.3012048e-001
  5.2323580e-001
  5.2380952e-001
  5.2036718e-001
  5.2208835e-001
  5.2151463e-001
  5.2208835e-001
  5.2151463e-001
  5.2266208e-001
  5.2380952e-001
  5.3184165e-001
  5.4962708e-001
  5.8405049e-001
  6.3109581e-001
  6.9477912e-001
  7.4641423e-001
  7.7739530e-001
  7.8083764e-001
  7.5559380e-001
  7.1084337e-001
  6.4486517e-001
  5.8118187e-001
  5.3757889e-001
  5.1807229e-001
  5.1348250e-001
  5.1807229e-001
  5.1921974e-001
  5.1749857e-001
  5.1118761e-001
  5.0946644e-001
  5.0946644e-001
  5.1348250e-001
  5.1462995e-001
  5.1692484e-001
  5.1290878e-001
  5.1348250e-001
  5.1118761e-001
  5.1233505e-001
  5.1577740e-001
  5.2036718e-001
  5.1921974e-001
  5.2036718e-001
  5.1635112e-001
  5.1462995e-001
  5.1635112e-001
  5.1520367e-001
  5.1692484e-001
  5.1692484e-001
  5.1749857e-001
  5.1807229e-001
  5.1692484e-001
  5.1462995e-001
  5.1176133e-001
  5.1290878e-001
  5.1233505e-001
  5.1290878e-001
  5.1233505e-001
  5.1290878e-001
  5.1290878e-001
  5.1176133e-001
  5.0831899e-001
  5.0889271e-001
  5.0831899e-001
  5.0315548e-001
  5.0430293e-001
  5.0258176e-001
  5.0258176e-001
  5.0200803e-001
  5.0143431e-001
  4.9971314e-001
  4.9971314e-001
  5.0258176e-001
  5.0258176e-001
  5.0602410e-001
  5.0545037e-001
  5.1176133e-001
  5.1233505e-001
  5.1290878e-001
  5.1749857e-001
  5.2151463e-001
  5.2495697e-001
  5.2610442e-001
  5.3069421e-001
  5.3241538e-001
  5.3241538e-001
  5.3126793e-001
  5.3184165e-001
  5.3184165e-001
  5.3356282e-001
  5.3700516e-001
  5.3700516e-001
  5.3757889e-001
  5.3643144e-001
  5.3643144e-001
  5.3471027e-001
  5.3643144e-001
  5.3356282e-001
  5.3585772e-001
  5.3643144e-001
  5.3585772e-001
  5.3643144e-001
  5.3126793e-001
  5.3184165e-001
  5.3471027e-001
  5.3298910e-001
  5.3471027e-001
  5.3700516e-001
  5.3700516e-001
  5.3815261e-001
  5.3872633e-001
  5.3815261e-001
  5.3872633e-001
  5.3700516e-001
  5.3872633e-001
  5.3930006e-001
  5.4044750e-001
  5.4331612e-001
  5.4561102e-001
  5.4446357e-001
  5.4847963e-001
  5.4733219e-001
  5.5134825e-001
  5.5249570e-001
  5.5479059e-001
  5.5364314e-001
  5.5479059e-001
  5.4790591e-001
  5.4274240e-001
  5.4216867e-001
  5.4274240e-001
  5.4159495e-001
  5.4159495e-001
  5.3930006e-001
  5.3471027e-001
  5.3356282e-001
  5.2954676e-001
  5.3012048e-001
  5.2897303e-001
  5.2839931e-001
  5.3069421e-001
  5.3241538e-001
  5.3184165e-001
  5.3012048e-001
  5.2839931e-001
  5.2610442e-001
  5.2610442e-001
  5.2725186e-001
  5.2725186e-001
  5.2954676e-001
  5.2839931e-001
  5.2610442e-001
  5.2667814e-001
  5.2438325e-001
  5.2438325e-001
  5.2323580e-001
  5.2380952e-001
  5.2323580e-001
  5.2323580e-001
  5.2151463e-001
  5.2151463e-001
  5.2266208e-001
  5.2208835e-001
  5.2495697e-001
  5.2323580e-001
  5.2725186e-001
  5.3413655e-001
  5.5364314e-001
  5.7773953e-001
  6.0929432e-001
  6.5691337e-001
  7.0912220e-001
  7.5272519e-001
  7.7624785e-001
  7.7337923e-001
  7.4756168e-001
  7.0395869e-001
  6.4084911e-001
  5.7831325e-001
  5.3643144e-001
  5.1864601e-001
  5.1233505e-001
  5.1405622e-001
  5.1577740e-001
  5.0889271e-001
  5.0889271e-001
  5.0315548e-001
  4.9856569e-001
  4.9971314e-001
  5.0086059e-001
  4.9971314e-001
  5.0200803e-001
  5.0315548e-001
  5.0028686e-001
  4.9799197e-001
  4.9856569e-001
  4.9512335e-001
  4.9799197e-001
  4.9512335e-001
  4.9397590e-001
  4.9569707e-001
  4.9512335e-001
  4.9168101e-001
  4.8938612e-001
  4.8823867e-001
  4.8938612e-001
  4.8766495e-001
  4.9053356e-001
  4.9282846e-001
  4.9168101e-001
  4.8709122e-001
  4.8651750e-001
  4.8479633e-001
  4.8364888e-001
  4.8479633e-001
  4.8479633e-001
  4.8594378e-001
  4.8537005e-001
  4.8135399e-001
  4.7963282e-001
  4.7733792e-001
  4.7676420e-001
  4.7733792e-001
  4.7676420e-001
  4.7905909e-001
  4.7963282e-001
  4.7848537e-001
  4.7619048e-001
  4.7504303e-001
  4.7561675e-001
  4.7791165e-001
  4.7791165e-001
  4.8537005e-001
  4.8881239e-001
  4.9340218e-001
  4.9741824e-001
  4.9741824e-001
  4.9856569e-001
  5.0315548e-001
  5.0602410e-001
  5.1233505e-001
  5.1348250e-001
  5.1233505e-001
  5.1462995e-001
  5.1176133e-001
  5.1290878e-001
  5.1405622e-001
  5.1348250e-001
  5.1692484e-001
  5.1692484e-001
  5.1864601e-001
  5.1635112e-001
  5.1635112e-001
  5.1462995e-001
  5.1290878e-001
  5.1520367e-001
  5.1577740e-001
  5.1807229e-001
  5.1749857e-001
  5.1520367e-001
  5.1520367e-001
  5.1348250e-001
  5.1118761e-001
  5.1118761e-001
  5.1348250e-001
  5.1348250e-001
  5.1692484e-001
  5.1692484e-001
  5.1749857e-001
  5.1807229e-001
  5.1807229e-001
  5.2094091e-001
  5.2495697e-001
  5.3012048e-001
  5.2954676e-001
  5.3413655e-001
  5.3700516e-001
  5.3757889e-001
  5.3413655e-001
  5.3471027e-001
  5.3126793e-001
  5.2725186e-001
  5.2553069e-001
  5.2725186e-001
  5.2725186e-001
  5.2495697e-001
  5.1979346e-001
  5.1290878e-001
  5.1405622e-001
  5.1233505e-001
  5.1462995e-001
  5.1462995e-001
  5.1635112e-001
  5.1405622e-001
  5.1233505e-001
  5.1176133e-001
  5.1061388e-001
  5.1118761e-001
  5.1290878e-001
  5.1462995e-001
  5.1635112e-001
  5.1462995e-001
  5.0889271e-001
  5.1176133e-001
  5.0889271e-001
  5.1118761e-001
  5.1176133e-001
  5.1233505e-001
  5.1520367e-001
  5.1405622e-001
  5.1290878e-001
  5.0889271e-001
  5.1004016e-001
  5.0946644e-001
  5.0889271e-001
  5.1004016e-001
  5.1176133e-001
  5.1118761e-001
  5.0946644e-001
  5.1520367e-001
  5.2438325e-001
  5.4388985e-001
  5.8003442e-001
  6.3166954e-001
  6.9420539e-001
  7.4469306e-001
  7.7280551e-001
  7.7796902e-001
  7.5272519e-001
  7.0682731e-001
  6.4371773e-001
  5.7831325e-001
  5.3184165e-001
  5.0889271e-001
  5.0143431e-001
  5.0258176e-001
  5.0315548e-001
  4.9971314e-001
  4.9627080e-001
  4.9397590e-001
  4.9397590e-001
  4.9340218e-001
  4.9397590e-001
  4.9282846e-001
  4.9282846e-001
  4.9282846e-001
  4.8938612e-001
  4.9110729e-001
  4.9340218e-001
  4.9512335e-001
  4.9684452e-001
  4.9454963e-001
  4.9397590e-001
  4.9340218e-001
  4.9053356e-001
  4.8823867e-001
  4.8995984e-001
  4.9168101e-001
  4.9168101e-001
  4.9110729e-001
  4.8995984e-001
  4.8995984e-001
  4.8823867e-001
  4.8938612e-001
  4.8881239e-001
  4.8881239e-001
  4.8995984e-001
  4.8709122e-001
  4.8364888e-001
  4.8307516e-001
  4.7905909e-001
  4.7791165e-001
  4.7733792e-001
  4.7963282e-001
  4.7905909e-001
  4.7963282e-001
  4.7791165e-001
  4.7676420e-001
  4.7504303e-001
  4.7561675e-001
  4.7504303e-001
  4.7905909e-001
  4.8020654e-001
  4.8479633e-001
  4.8537005e-001
  4.9053356e-001
  4.9225473e-001
  4.9512335e-001
  4.9971314e-001
  5.0315548e-001
  5.0831899e-001
  5.0831899e-001
  5.0946644e-001
  5.1061388e-001
  5.1061388e-001
  5.0717154e-001
  5.0717154e-001
  5.1176133e-001
  5.1405622e-001
  5.1405622e-001
  5.1233505e-001
  5.1462995e-001
  5.1290878e-001
  5.1233505e-001
  5.1118761e-001
  5.1004016e-001
  5.1061388e-001
  5.1176133e-001
  5.1290878e-001
  5.1348250e-001
  5.1118761e-001
  5.1004016e-001
  5.1004016e-001
  5.1004016e-001
  5.1290878e-001
  5.1577740e-001
  5.1577740e-001
  5.1348250e-001
  5.1635112e-001
  5.1635112e-001
  5.1692484e-001
  5.1635112e-001
  5.1807229e-001
  5.1979346e-001
  5.2323580e-001
  5.2667814e-001
  5.2782559e-001
  5.2954676e-001
  5.3069421e-001
  5.3069421e-001
  5.3700516e-001
  5.3872633e-001
  5.3872633e-001
  5.3815261e-001
  5.3757889e-001
  5.3413655e-001
  5.2897303e-001
  5.3069421e-001
