  5.7680098e-001  5.7680098e-001  5.7484737e-001  5.7264957e-001  5.7094017e-001  5.6825397e-001  5.6581197e-001  5.6239316e-001  5.6019536e-001  5.5873016e-001  5.5848596e-001  5.5921856e-001  5.5921856e-001  5.5873016e-001  5.5775336e-001  5.5555556e-001  5.5335775e-001  5.5360195e-001  5.5140415e-001  5.4774115e-001  5.4456654e-001  5.4334554e-001  5.4261294e-001  5.4334554e-001  5.4188034e-001  5.3943834e-001  5.3724054e-001  5.3748474e-001  5.3870574e-001  5.4236874e-001  5.4554335e-001  5.4603175e-001  5.4090354e-001  5.3724054e-001  5.3528694e-001  5.3504274e-001  5.3528694e-001  5.3308913e-001  5.3064713e-001  5.2918193e-001  5.2918193e-001  5.2625153e-001  5.2039072e-001  5.1257631e-001  5.0744811e-001  5.0354090e-001  5.0012210e-001  4.9157509e-001  4.8766789e-001  4.8498168e-001  4.8351648e-001  4.8327228e-001  4.8424908e-001  4.8498168e-001  4.8473748e-001  4.8327228e-001  4.8327228e-001  4.8424908e-001  4.8571429e-001  4.8913309e-001  5.0012210e-001  5.0598291e-001  5.1111111e-001  5.1452991e-001  5.1526252e-001  5.1672772e-001  5.1843712e-001  5.2063492e-001  5.2063492e-001  5.2039072e-001  5.1990232e-001  5.1990232e-001  5.1892552e-001  5.1916972e-001  5.1990232e-001  5.2185592e-001  5.2429792e-001  5.2649573e-001  5.2698413e-001  5.2991453e-001  5.3308913e-001  5.3675214e-001  5.3894994e-001  5.4114774e-001  5.4334554e-001  5.4529915e-001  5.4383394e-001  5.3797314e-001  5.3357753e-001  5.3284493e-001  5.3528694e-001  5.3894994e-001  5.4188034e-001  5.4310134e-001  5.4554335e-001  5.4847375e-001  5.4993895e-001  5.5042735e-001  5.5140415e-001  5.5067155e-001  5.5042735e-001  5.5189255e-001  5.5335775e-001  5.5409035e-001  5.5409035e-001  5.5262515e-001  5.5360195e-001  5.5506716e-001  5.5555556e-001  5.5482295e-001  5.4822955e-001  5.4114774e-001  5.3968254e-001  5.4261294e-001  5.4261294e-001  5.3943834e-001  5.2869353e-001  5.1477411e-001  5.1330891e-001  5.2796093e-001  5.5335775e-001  5.8803419e-001  6.2588523e-001  6.6862027e-001  7.0158730e-001  7.2039072e-001  7.2503053e-001  7.1257631e-001  6.7301587e-001  6.1636142e-001  5.5995116e-001  5.1013431e-001  4.6520147e-001  4.2686203e-001  3.8656899e-001  3.4993895e-001  3.2454212e-001  3.1916972e-001  3.2503053e-001  3.2429792e-001  3.2014652e-001  3.2869353e-001  3.5433455e-001  3.9194139e-001  4.3150183e-001  4.6813187e-001  5.0158730e-001  5.1892552e-001  5.2405372e-001  5.1770452e-001  5.0891331e-001  5.0451770e-001  5.0451770e-001  5.0647131e-001  5.0818071e-001  5.0793651e-001  5.1086691e-001  5.1965812e-001  5.3064713e-001  5.4114774e-001  5.5506716e-001  5.7094017e-001  5.8510379e-001  5.9609280e-001  6.0415140e-001  6.1050061e-001  6.1807082e-001  6.2808303e-001  6.3711844e-001  6.4517705e-001  6.4810745e-001  6.5030525e-001  6.5445665e-001  6.6275946e-001  6.7008547e-001  6.7741148e-001  6.8253968e-001  6.8693529e-001  6.9352869e-001  7.0378510e-001  7.1452991e-001  7.2551893e-001  7.3455433e-001  7.3968254e-001  7.4334554e-001  7.4920635e-001  7.5433455e-001  7.5506716e-001  7.5042735e-001  7.4163614e-001  7.3528694e-001  7.2918193e-001  7.2503053e-001  7.2136752e-001  7.2063492e-001  7.1697192e-001  7.0940171e-001  7.0231990e-001  6.9279609e-001  6.8327228e-001  6.7594628e-001  6.6862027e-001  6.5885226e-001  6.4713065e-001  6.3565324e-001  6.2686203e-001  6.2222222e-001  6.1782662e-001  6.1196581e-001  6.0317460e-001  5.9365079e-001  5.8070818e-001  5.6459096e-001  5.4920635e-001  5.3724054e-001  5.2869353e-001  5.2185592e-001  5.1672772e-001  5.1086691e-001  5.0573871e-001  5.0231990e-001  5.0231990e-001  5.0158730e-001  5.0207570e-001  5.0158730e-001  5.0134310e-001  4.9572650e-001  4.9426129e-001  4.9206349e-001  4.8913309e-001  4.8547009e-001  4.8327228e-001  4.7887668e-001  4.7155067e-001  4.6422466e-001  4.5934066e-001  4.5982906e-001  4.6422466e-001  4.6642247e-001  4.6373626e-001  4.6007326e-001  4.5836386e-001  4.5836386e-001  4.5860806e-001  4.6007326e-001  4.6007326e-001  4.6056166e-001  4.6202686e-001  4.6520147e-001  4.6568987e-001  4.6739927e-001  4.7179487e-001  4.7594628e-001  4.7692308e-001  4.7960928e-001  4.8327228e-001  4.8937729e-001  5.0012210e-001  5.0866911e-001  5.1404151e-001  5.1526252e-001  5.1306471e-001  5.1013431e-001  5.1013431e-001  5.1257631e-001  5.1404151e-001  5.1233211e-001  5.1013431e-001  5.0573871e-001  5.0085470e-001  4.9352869e-001  4.9133089e-001  4.8791209e-001  4.8693529e-001  4.8400488e-001  4.7619048e-001  4.5860806e-001  4.3663004e-001  4.1245421e-001  3.9316239e-001  3.8217338e-001  3.8241758e-001  3.9560440e-001  4.1172161e-001  4.2783883e-001  4.4615385e-001  4.6153846e-001  4.7741148e-001  4.8791209e-001  4.8424908e-001  4.7838828e-001  4.7301587e-001  4.6886447e-001  4.6666667e-001  4.6446886e-001  4.5641026e-001  4.4444444e-001  4.2783883e-001  4.1611722e-001  4.1074481e-001  4.0879121e-001  4.1440781e-001  4.2393162e-001  4.3199023e-001  4.4004884e-001  4.5323565e-001  4.6568987e-001  4.7399267e-001  4.7814408e-001  4.8131868e-001  4.8400488e-001  4.8058608e-001  4.7374847e-001  4.7008547e-001  4.6788767e-001  4.6666667e-001  4.6788767e-001  4.7106227e-001  4.7326007e-001  4.7545788e-001  4.7619048e-001  4.7448107e-001  4.7081807e-001  4.6739927e-001  4.6520147e-001  4.6300366e-001  4.5982906e-001  4.5860806e-001  4.5982906e-001  4.6227106e-001  4.6300366e-001  4.6227106e-001  4.5860806e-001  4.5103785e-001  4.4078144e-001  4.3076923e-001  4.2344322e-001  4.1758242e-001  4.1294261e-001  4.0781441e-001  3.9975580e-001  3.9096459e-001  3.8876679e-001  3.8974359e-001  3.9487179e-001  3.9902320e-001  4.0561661e-001  4.1367521e-001  4.2490842e-001  4.3516484e-001  4.4444444e-001  4.5201465e-001  4.6056166e-001  4.6715507e-001  4.7081807e-001  4.7374847e-001  4.7619048e-001  4.7741148e-001  4.7814408e-001  4.7838828e-001  4.8034188e-001  4.8498168e-001  4.9352869e-001  5.0598291e-001  5.1526252e-001  5.1990232e-001  5.2136752e-001  5.2210012e-001  5.1965812e-001  5.1916972e-001  5.2039072e-001  5.2283272e-001  5.2698413e-001  5.3015873e-001  5.3284493e-001  5.3577534e-001  5.3894994e-001  5.4090354e-001  5.4188034e-001  5.4090354e-001  5.4090354e-001  5.4554335e-001  5.5189255e-001  5.5482295e-001  5.5262515e-001  5.5042735e-001  5.5213675e-001  5.5506716e-001  5.5995116e-001  5.6214896e-001  5.5946276e-001  5.5409035e-001  5.4847375e-001  5.4236874e-001  5.3748474e-001  5.3284493e-001  5.3235653e-001  5.3504274e-001  5.3724054e-001  5.3748474e-001  5.3577534e-001  5.3455433e-001  5.3455433e-001  5.3504274e-001  5.3382173e-001  5.3382173e-001  5.3577534e-001  5.3870574e-001  5.4041514e-001  5.4090354e-001  5.3968254e-001  5.3943834e-001  5.3968254e-001  5.4041514e-001  5.4114774e-001  5.4114774e-001  5.4090354e-001  5.4188034e-001  5.4310134e-001  5.4603175e-001  5.4847375e-001  5.5067155e-001  5.5067155e-001  5.4920635e-001  5.4603175e-001  5.4481074e-001  5.4603175e-001  5.4969475e-001  5.5115995e-001  5.5067155e-001  5.4822955e-001  5.4456654e-001  5.4481074e-001  5.4700855e-001  5.4847375e-001  5.5067155e-001  5.5286935e-001  5.5213675e-001  5.5286935e-001  5.5335775e-001  5.5262515e-001  5.5213675e-001  5.5360195e-001  5.5360195e-001  5.5506716e-001  5.5653236e-001  5.5775336e-001  5.5702076e-001  5.5726496e-001  5.5799756e-001  5.5848596e-001  5.5799756e-001  5.5873016e-001  5.6019536e-001  5.5873016e-001  5.5579976e-001  5.5433455e-001  5.5262515e-001  5.5189255e-001  5.5213675e-001  5.5189255e-001  5.4993895e-001  5.4603175e-001  5.4529915e-001  5.4481074e-001  5.4236874e-001  5.3821734e-001  5.3528694e-001  5.3431013e-001  5.3284493e-001  5.3064713e-001  5.2796093e-001  5.2551893e-001  5.2478632e-001  5.2625153e-001  5.2625153e-001  5.2332112e-001  5.2136752e-001  5.1892552e-001  5.1770452e-001  5.1770452e-001  5.1770452e-001  5.1746032e-001  5.1746032e-001  5.1843712e-001  5.2112332e-001  5.2332112e-001  5.2258852e-001  5.2210012e-001  5.2356532e-001  5.2771673e-001  5.3064713e-001  5.3089133e-001  5.2649573e-001  5.2356532e-001  5.2258852e-001  5.2185592e-001  5.2112332e-001  5.2136752e-001  5.2136752e-001  5.2136752e-001  5.2112332e-001  5.2283272e-001  5.2576313e-001  5.2869353e-001  5.2918193e-001  5.2844933e-001  5.2356532e-001  5.1526252e-001  5.0647131e-001  4.9645910e-001  4.9352869e-001  5.0451770e-001  5.1257631e-001  4.9597070e-001  4.6959707e-001  4.4884005e-001  4.3345543e-001  4.2319902e-001  4.1587302e-001  3.8437118e-001  3.7557998e-001  3.4945055e-001  3.2942613e-001  3.2820513e-001  3.2893773e-001  3.4065934e-001  3.6410256e-001  3.7777778e-001  3.7142857e-001  3.6336996e-001  3.6971917e-001  3.8388278e-001  4.0366300e-001  4.2539683e-001  4.4688645e-001  4.6520147e-001  4.7765568e-001  4.8620269e-001  4.8986569e-001  4.9572650e-001  5.0720391e-001  5.1990232e-001  5.3235653e-001  5.4383394e-001  5.4920635e-001  5.5115995e-001  5.5262515e-001  5.5409035e-001  5.5335775e-001  5.5555556e-001  5.5946276e-001  5.6361416e-001  5.6752137e-001  5.7313797e-001  5.7899878e-001  5.8437118e-001  5.8778999e-001  5.9023199e-001  5.9291819e-001  5.9536020e-001  5.9902320e-001  6.0024420e-001  6.0195360e-001  6.0341880e-001  6.0537241e-001  6.0537241e-001  6.0268620e-001  5.9584860e-001  5.9072039e-001  5.8339438e-001  5.7631258e-001  5.7118437e-001  5.6898657e-001  5.6898657e-001  5.6947497e-001  5.6752137e-001  5.6434676e-001  5.5995116e-001  5.5555556e-001  5.5409035e-001  5.5482295e-001  5.5335775e-001  5.5115995e-001  5.5140415e-001  5.5115995e-001  5.5042735e-001  5.4969475e-001  5.5115995e-001  5.5140415e-001  5.4822955e-001  5.3968254e-001  5.2942613e-001  5.1965812e-001  5.1159951e-001  5.0598291e-001  5.0378510e-001  5.0280830e-001  5.0525031e-001  5.0720391e-001  5.0940171e-001  5.0891331e-001  5.0891331e-001  5.0866911e-001  5.0940171e-001  5.1159951e-001  5.1452991e-001  5.1843712e-001  5.2112332e-001  5.2185592e-001  5.2283272e-001  5.2576313e-001  5.2844933e-001  5.3015873e-001  5.3064713e-001  5.3137973e-001  5.3308913e-001  5.3504274e-001  5.3650794e-001  5.3968254e-001  5.4236874e-001  5.4481074e-001  5.4236874e-001  5.2478632e-001  4.9157509e-001  4.7741148e-001  4.7985348e-001  4.8937729e-001  5.0573871e-001  5.1843712e-001  5.1892552e-001  5.2356532e-001  5.2918193e-001  5.2478632e-001  5.1892552e-001  5.1770452e-001  5.1892552e-001  5.1916972e-001  5.1892552e-001  5.1770452e-001  5.1916972e-001  5.2136752e-001  5.2063492e-001  5.1746032e-001  5.1623932e-001  5.1697192e-001  5.1965812e-001  5.2258852e-001  5.2551893e-001  5.2625153e-001  5.2576313e-001  5.2625153e-001  5.2649573e-001  5.2796093e-001  5.2991453e-001  5.3235653e-001  5.3577534e-001  5.3968254e-001  5.4188034e-001  5.4236874e-001  5.4188034e-001  5.4188034e-001  5.4261294e-001  5.4481074e-001  5.4749695e-001  5.4969475e-001  5.4920635e-001  5.4774115e-001  5.4529915e-001  5.4456654e-001  5.4603175e-001  5.4847375e-001  5.4896215e-001  5.4847375e-001  5.4749695e-001  5.4676435e-001  5.4627595e-001  5.4847375e-001  5.4822955e-001  5.4700855e-001  5.4774115e-001  5.4896215e-001  5.4847375e-001  5.4627595e-001  5.4554335e-001  5.4700855e-001  5.4993895e-001  5.5262515e-001  5.5506716e-001  5.5189255e-001  5.4554335e-001  5.4090354e-001  5.3894994e-001  5.3675214e-001  5.3601954e-001  5.3431013e-001  5.3235653e-001  5.2918193e-001  5.2576313e-001  5.2258852e-001  5.1672772e-001  5.0964591e-001  5.0280830e-001  4.9230769e-001  4.8498168e-001  4.7765568e-001  4.6959707e-001  4.5909646e-001  4.4908425e-001  4.4542125e-001  4.4664225e-001  4.5128205e-001  4.5054945e-001  4.4322344e-001  4.3369963e-001  4.2393162e-001  4.1514042e-001  4.1025641e-001  4.1098901e-001  4.1758242e-001  4.2783883e-001  4.3956044e-001  4.5128205e-001  4.6056166e-001  4.6666667e-001  4.7374847e-001  4.7912088e-001  4.8351648e-001  4.8766789e-001  4.9059829e-001  4.9133089e-001  5.0061050e-001  5.0940171e-001  5.1697192e-001  5.2283272e-001  5.2478632e-001  5.2405372e-001  5.2478632e-001  5.2771673e-001  5.2942613e-001  5.2991453e-001  5.2869353e-001  5.2796093e-001  5.2796093e-001  5.3064713e-001  5.3504274e-001  5.3797314e-001  5.3894994e-001  5.4017094e-001  5.4017094e-001  5.4017094e-001  5.4188034e-001  5.4554335e-001  5.4993895e-001  5.5555556e-001  5.5799756e-001  5.5873016e-001  5.5653236e-001  5.5140415e-001  5.4822955e-001  5.4774115e-001  5.5067155e-001  5.5506716e-001  5.6166056e-001  5.6947497e-001  5.7777778e-001  5.8363858e-001  5.8632479e-001  5.8339438e-001  5.7606838e-001  5.6581197e-001  5.5921856e-001  5.5579976e-001  5.5579976e-001  5.6019536e-001  5.6507937e-001  5.6507937e-001  5.6141636e-001  5.5286935e-001  5.4407814e-001  5.3943834e-001  5.3894994e-001  5.4090354e-001  5.4163614e-001  5.4041514e-001  5.3968254e-001  5.3797314e-001  5.3382173e-001  5.2991453e-001  5.2625153e-001  5.2283272e-001  5.1843712e-001  5.1477411e-001  5.1159951e-001  5.1013431e-001  5.1013431e-001  5.1086691e-001  5.0940171e-001  5.0744811e-001  5.0598291e-001  5.0598291e-001  5.0793651e-001  5.1159951e-001  5.1452991e-001  5.1452991e-001  5.1404151e-001  5.1477411e-001  5.1550672e-001  5.1477411e-001  5.1379731e-001  5.1379731e-001  5.1452991e-001  5.1599512e-001  5.1892552e-001  5.1916972e-001  5.1623932e-001  5.1037851e-001  5.0525031e-001  5.0280830e-001  5.0231990e-001  5.0061050e-001  4.9450549e-001  4.9084249e-001  4.8840049e-001  4.8840049e-001  4.8986569e-001  4.9084249e-001  4.9206349e-001  4.9230769e-001  4.9304029e-001  4.9523810e-001  5.0134310e-001  5.0378510e-001  5.0280830e-001  5.0085470e-001  5.0085470e-001  5.0012210e-001  4.9523810e-001  4.9352869e-001  4.9206349e-001  4.9157509e-001  4.9059829e-001  4.9010989e-001  4.9157509e-001  4.9304029e-001  4.9499389e-001  5.0207570e-001  5.0573871e-001  5.0891331e-001  5.1184371e-001  5.1404151e-001  5.1306471e-001  5.1257631e-001  5.1159951e-001  5.0940171e-001  5.0647131e-001  5.0525031e-001  5.0525031e-001  5.0500611e-001  5.0525031e-001  5.0671551e-001  5.0866911e-001  5.1013431e-001  5.1111111e-001  5.1037851e-001  5.0964591e-001  5.1086691e-001  5.1404151e-001  5.1477411e-001  5.1330891e-001  5.1037851e-001  5.0720391e-001  5.0427350e-001  5.0451770e-001  5.0598291e-001  5.0671551e-001  5.0647131e-001  5.0525031e-001  5.0354090e-001  5.0280830e-001  5.0280830e-001  5.0378510e-001  5.0647131e-001  5.0940171e-001  5.1330891e-001  5.1550672e-001  5.1452991e-001  5.0818071e-001  5.0012210e-001  4.8791209e-001  4.7814408e-001  4.6593407e-001  4.5396825e-001  4.4395604e-001  4.3589744e-001  4.2783883e-001  4.2051282e-001  4.1245421e-001  4.0879121e-001  4.0879121e-001  4.1978022e-001  4.3003663e-001  4.3418803e-001  4.3296703e-001  4.2783883e-001  4.2319902e-001  4.2271062e-001  4.2539683e-001  4.2857143e-001  4.3003663e-001  4.3076923e-001  4.3492063e-001  4.4004884e-001  4.4884005e-001  4.5860806e-001  4.6886447e-001  4.7619048e-001  4.8131868e-001  4.8644689e-001  4.9352869e-001  5.0305250e-001  5.1257631e-001  5.2258852e-001  5.2942613e-001  5.3382173e-001  5.3235653e-001  5.2796093e-001  5.2576313e-001  5.2649573e-001  5.2796093e-001  5.3064713e-001  5.3431013e-001  5.3821734e-001  5.3943834e-001  5.3968254e-001  5.3968254e-001  5.3870574e-001  5.3577534e-001  5.3504274e-001  5.3675214e-001  5.3870574e-001  5.3821734e-001  5.3821734e-001  5.3943834e-001  5.4090354e-001  5.4383394e-001  5.4627595e-001  5.4481074e-001  5.4261294e-001  5.3968254e-001  5.3748474e-001  5.3870574e-001  5.4163614e-001  5.4554335e-001  5.4920635e-001  5.4969475e-001  5.4969475e-001  5.4969475e-001  5.4993895e-001  5.5067155e-001  5.5140415e-001  5.5286935e-001  5.5506716e-001  5.5873016e-001  5.6288156e-001  5.6605617e-001  5.6800977e-001  5.6874237e-001  5.6898657e-001  5.6947497e-001  5.6825397e-001  5.6678877e-001  5.6361416e-001  5.6068376e-001  5.5726496e-001  5.5555556e-001  5.5506716e-001  5.5482295e-001  5.5506716e-001  5.5506716e-001  5.5482295e-001  5.5335775e-001  5.5213675e-001  5.4969475e-001  5.4774115e-001  5.4749695e-001  5.4774115e-001  5.4822955e-001  5.4847375e-001  5.4774115e-001  5.4749695e-001  5.4481074e-001  5.4090354e-001  5.3894994e-001  5.3968254e-001  5.3894994e-001  5.3675214e-001  5.3504274e-001  5.3357753e-001  5.3064713e-001  5.2918193e-001  5.2698413e-001  5.2698413e-001  5.2844933e-001  5.3089133e-001  5.3382173e-001  5.3431013e-001  5.3308913e-001  5.3284493e-001  5.3357753e-001  5.3528694e-001  5.3724054e-001  5.3894994e-001  5.4017094e-001  5.4041514e-001  5.4114774e-001  5.4041514e-001  5.3943834e-001  5.3894994e-001  5.4041514e-001  5.4236874e-001  5.4456654e-001  5.4456654e-001  5.4529915e-001  5.4603175e-001  5.4847375e-001  5.5213675e-001  5.5653236e-001  5.5921856e-001  5.6019536e-001  5.5946276e-001  5.5848596e-001  5.5653236e-001  5.5482295e-001  5.5409035e-001  5.5555556e-001  5.5702076e-001  5.5702076e-001  5.5775336e-001  5.5702076e-001  5.5628816e-001  5.5482295e-001  5.5213675e-001  5.5115995e-001  5.5213675e-001  5.5140415e-001  5.4847375e-001  5.4236874e-001  5.3724054e-001  5.3357753e-001  5.3431013e-001  5.3601954e-001  5.3650794e-001  5.3382173e-001  5.2942613e-001  5.2576313e-001  5.2332112e-001  5.2332112e-001  5.2429792e-001  5.2551893e-001  5.2551893e-001  5.2625153e-001  5.2576313e-001  5.2576313e-001  5.2405372e-001  5.2283272e-001  5.2332112e-001  5.2356532e-001  5.2136752e-001  5.1892552e-001  5.1550672e-001  5.1330891e-001  5.1159951e-001  5.0964591e-001  5.0671551e-001  5.0451770e-001  5.0427350e-001  5.0573871e-001  5.0573871e-001  5.0231990e-001  4.9426129e-001  4.9059829e-001  4.8766789e-001  4.8424908e-001  4.8107448e-001  4.7765568e-001  4.7179487e-001  4.6593407e-001  4.6202686e-001  4.5763126e-001  4.5543346e-001  4.5396825e-001  4.5103785e-001  4.4810745e-001  4.4688645e-001  4.4615385e-001  4.4590965e-001  4.4517705e-001  4.4542125e-001  4.4664225e-001  4.5030525e-001  4.5201465e-001  4.5128205e-001  4.4761905e-001  4.4371184e-001  4.4151404e-001  4.4371184e-001  4.4590965e-001  4.4737485e-001  4.4884005e-001  4.5250305e-001  4.5909646e-001  4.6349206e-001  4.6935287e-001  4.7374847e-001  4.7814408e-001  4.8180708e-001  4.8498168e-001  4.8840049e-001  4.9206349e-001  4.9450549e-001  4.9597070e-001  4.9597070e-001  5.0134310e-001  5.0573871e-001  5.1037851e-001  5.1452991e-001  5.1819292e-001  5.1916972e-001  5.2210012e-001  5.2625153e-001  5.3211233e-001  5.3748474e-001  5.4090354e-001  5.4114774e-001  5.4114774e-001  5.3894994e-001  5.3504274e-001  5.3235653e-001  5.3137973e-001  5.3284493e-001  5.3504274e-001  5.3748474e-001  5.4041514e-001  5.4163614e-001  5.4236874e-001  5.4310134e-001  5.4627595e-001  5.5140415e-001  5.5360195e-001  5.5409035e-001  5.5286935e-001  5.5262515e-001  5.5286935e-001  5.5433455e-001  5.5433455e-001  5.5433455e-001  5.5286935e-001  5.5262515e-001  5.5140415e-001  5.5042735e-001  5.5115995e-001  5.5115995e-001  5.5042735e-001  5.4847375e-001  5.4529915e-001  5.4310134e-001  5.4090354e-001  5.3797314e-001  5.3601954e-001  5.3455433e-001  5.3455433e-001  5.3504274e-001  5.3675214e-001  5.3797314e-001  5.3797314e-001  5.3528694e-001  5.3284493e-001  5.3064713e-001  5.3089133e-001  5.3162393e-001  5.3211233e-001  5.2942613e-001  5.2625153e-001  5.2503053e-001  5.2576313e-001  5.2625153e-001  5.2625153e-001  5.2844933e-001  5.2918193e-001  5.3064713e-001  5.3211233e-001  5.3284493e-001  5.3137973e-001  5.3089133e-001  5.3162393e-001  5.3357753e-001  5.3455433e-001  5.3528694e-001  5.3577534e-001  5.3601954e-001  5.3601954e-001  5.3724054e-001  5.3797314e-001  5.3797314e-001  5.3797314e-001  5.4090354e-001  5.4554335e-001  5.5067155e-001  5.5506716e-001  5.5995116e-001  5.6507937e-001  5.6678877e-001  5.6898657e-001  5.7094017e-001  5.7094017e-001  5.6825397e-001  5.6166056e-001  5.5286935e-001  5.4554335e-001  5.3870574e-001  5.3235653e-001  5.2576313e-001  5.2039072e-001  5.1672772e-001  5.1233211e-001  5.0891331e-001  5.0720391e-001  5.0720391e-001  5.0940171e-001  5.1233211e-001  5.1599512e-001  5.1623932e-001  5.1550672e-001  5.1697192e-001  5.1770452e-001  5.1819292e-001  5.1819292e-001  5.1770452e-001  5.1672772e-001  5.1892552e-001  5.2063492e-001  5.2258852e-001  5.2332112e-001  5.2332112e-001  5.2332112e-001  5.2478632e-001  5.2722833e-001  5.2918193e-001  5.2918193e-001  5.2844933e-001  5.2722833e-001  5.2844933e-001  5.2991453e-001  5.3064713e-001  5.2991453e-001  5.2918193e-001  5.2796093e-001  5.2722833e-001  5.2576313e-001  5.2503053e-001  5.2429792e-001  5.2136752e-001  5.1892552e-001  5.1623932e-001  5.1379731e-001  5.1184371e-001  5.1086691e-001  5.0964591e-001  5.1111111e-001  5.1159951e-001  5.0940171e-001  5.0378510e-001  4.9645910e-001  4.9304029e-001  4.9352869e-001  4.9426129e-001  4.9572650e-001  4.9572650e-001  4.9597070e-001  5.0012210e-001  5.0207570e-001  5.0573871e-001  5.0598291e-001  5.0573871e-001  5.0354090e-001  4.9523810e-001  4.8913309e-001  4.8473748e-001  4.8107448e-001  4.7667888e-001  4.7179487e-001  4.6813187e-001  4.6300366e-001  4.5641026e-001  4.4981685e-001  4.4224664e-001  4.3150183e-001  4.1904762e-001  4.0708181e-001  3.9975580e-001  3.9633700e-001  3.9853480e-001  4.0341880e-001  4.0854701e-001  4.1538462e-001  4.2637363e-001  4.3418803e-001  4.3589744e-001  4.3663004e-001  4.3785104e-001  4.3272283e-001  4.2271062e-001  4.1465201e-001  4.1514042e-001  4.3223443e-001  4.6495726e-001  5.1111111e-001  5.5873016e-001  6.1221001e-001  6.6617827e-001  7.1037851e-001  7.5213675e-001  7.7387057e-001  7.5433455e-001  7.0158730e-001  6.4078144e-001  5.9096459e-001  5.5775336e-001  5.3235653e-001  5.0573871e-001  4.7326007e-001  4.5128205e-001  4.5103785e-001  4.6715507e-001  4.8840049e-001  5.1599512e-001  5.4310134e-001  5.7313797e-001  5.9511600e-001  6.1343101e-001  6.2808303e-001  6.4371184e-001  6.5836386e-001  6.7057387e-001  6.7814408e-001  6.8180708e-001  6.8009768e-001  6.7716728e-001  6.7521368e-001  6.7496947e-001  6.7277167e-001  6.6935287e-001  6.6544567e-001  6.6105006e-001  6.5518926e-001  6.4884005e-001  6.4224664e-001  6.3467643e-001  6.2832723e-001  6.2442002e-001  6.2368742e-001  6.2368742e-001  6.2393162e-001  6.2319902e-001  6.2466422e-001  6.2612943e-001  6.3052503e-001  6.3492063e-001  6.3760684e-001  6.3785104e-001  6.3931624e-001  6.4371184e-001  6.5152625e-001  6.5909646e-001  6.6642247e-001  6.7277167e-001  6.7814408e-001  6.8302808e-001  6.8766789e-001  6.9133089e-001  6.9572650e-001  7.0134310e-001  7.0378510e-001  7.0451770e-001  7.0451770e-001  7.0061050e-001  6.9645910e-001  6.9352869e-001  6.8888889e-001  6.8229548e-001  6.7301587e-001  6.6398046e-001  6.5689866e-001  6.4957265e-001  6.4078144e-001  6.3174603e-001  6.2075702e-001  6.1074481e-001  6.0097680e-001  5.9365079e-001  5.8437118e-001  5.7411477e-001  5.6532357e-001  5.5775336e-001  5.5042735e-001  5.4383394e-001  5.3968254e-001  5.3504274e-001  5.2991453e-001  5.2429792e-001  5.1697192e-001  5.0891331e-001  5.0378510e-001  5.0012210e-001  4.9426129e-001  4.9279609e-001  4.9084249e-001  4.8913309e-001  4.8840049e-001  4.8547009e-001  4.8107448e-001  4.7594628e-001  4.7301587e-001  4.7155067e-001  4.7008547e-001  4.7008547e-001  4.7106227e-001  4.7228327e-001  4.7252747e-001  4.7081807e-001  4.6935287e-001  4.6739927e-001  4.6593407e-001  4.6520147e-001  4.6373626e-001  4.6202686e-001  4.6007326e-001  4.5860806e-001  4.5567766e-001  4.5201465e-001  4.4810745e-001  4.4542125e-001  4.4517705e-001  4.4468864e-001  4.4249084e-001  4.4029304e-001  4.3882784e-001  4.4102564e-001  4.4371184e-001  4.4542125e-001  4.4542125e-001  4.4615385e-001  4.4884005e-001  4.5347985e-001  4.5689866e-001  4.5787546e-001  4.5616606e-001  4.5421245e-001  4.5347985e-001  4.5323565e-001  4.5201465e-001  4.4835165e-001  4.4542125e-001  4.4297924e-001  4.4175824e-001  4.4249084e-001  4.4395604e-001  4.4542125e-001  4.4957265e-001  4.5128205e-001  4.5177045e-001  4.5201465e-001  4.5421245e-001  4.5714286e-001  4.6080586e-001  4.6275946e-001  4.6373626e-001  4.6349206e-001  4.6056166e-001  4.5836386e-001  4.5567766e-001  4.5054945e-001  4.4590965e-001  4.3882784e-001  4.3052503e-001  4.2026862e-001  4.0659341e-001  3.9560440e-001  3.8608059e-001  3.8241758e-001  3.7997558e-001  3.7777778e-001  3.7289377e-001  3.6825397e-001  3.6630037e-001  3.6971917e-001  3.7655678e-001  3.8656899e-001  3.9413919e-001  4.0000000e-001  4.0341880e-001  4.0659341e-001  4.1001221e-001  4.1074481e-001  4.0952381e-001  4.0854701e-001  4.0854701e-001  4.1221001e-001  4.1880342e-001  4.2686203e-001  4.3785104e-001  4.5103785e-001  4.6862027e-001  4.8766789e-001  5.1037851e-001  5.2429792e-001  5.3748474e-001  5.4676435e-001  5.5042735e-001  5.4896215e-001  5.4603175e-001  5.4407814e-001  5.4749695e-001  5.5433455e-001  5.5995116e-001  5.6092796e-001  5.5848596e-001  5.5506716e-001  5.5506716e-001  5.5579976e-001  5.5702076e-001  5.5628816e-001  5.5433455e-001  5.5482295e-001  5.5653236e-001  5.5946276e-001  5.6239316e-001  5.6605617e-001  5.6947497e-001  5.7167277e-001  5.7167277e-001  5.7045177e-001  5.6874237e-001  5.6898657e-001  5.6874237e-001  5.6800977e-001  5.6752137e-001  5.6825397e-001  5.6874237e-001  5.6898657e-001  5.6678877e-001  5.6092796e-001  5.5433455e-001  5.4993895e-001  5.4749695e-001  5.4896215e-001  5.5140415e-001  5.5042735e-001  5.4920635e-001  5.4822955e-001  5.4896215e-001  5.4847375e-001  5.4969475e-001  5.4822955e-001  5.4529915e-001  5.4090354e-001  5.3528694e-001  5.3089133e-001  5.3015873e-001  5.2796093e-001  5.2478632e-001  5.2210012e-001  5.1892552e-001  5.1843712e-001  5.2063492e-001  5.2185592e-001  5.2112332e-001  5.1892552e-001  5.1623932e-001  5.1257631e-001  5.0964591e-001  5.0818071e-001  5.0720391e-001  5.1013431e-001  5.1746032e-001  5.2942613e-001  5.4334554e-001  5.5726496e-001  5.6581197e-001  5.6581197e-001  5.5726496e-001  5.4554335e-001  5.3504274e-001  5.3089133e-001  5.2503053e-001  5.2112332e-001  5.1452991e-001  5.0720391e-001  5.0231990e-001  5.0158730e-001  5.0158730e-001  5.0354090e-001  5.0378510e-001  5.0280830e-001  4.9426129e-001  4.8644689e-001  4.7667888e-001  4.6568987e-001  4.5616606e-001  4.5177045e-001  4.5470085e-001  4.6129426e-001  4.7228327e-001  4.8693529e-001  5.0744811e-001  5.1965812e-001  5.2844933e-001  5.2918193e-001  5.2796093e-001  5.2844933e-001  5.3162393e-001  5.3504274e-001  5.3748474e-001  5.3943834e-001  5.4041514e-001  5.4261294e-001  5.4676435e-001  5.4529915e-001  5.3797314e-001  5.3162393e-001  5.2722833e-001  5.2478632e-001  5.2356532e-001  5.2429792e-001  5.2356532e-001  5.2429792e-001  5.2551893e-001  5.2698413e-001  5.2551893e-001  5.2332112e-001  5.2039072e-001  5.1916972e-001  5.2063492e-001  5.2258852e-001  5.2258852e-001  5.2258852e-001  5.2039072e-001  5.1965812e-001  5.1916972e-001  5.1892552e-001  5.1819292e-001  5.1843712e-001  5.1843712e-001  5.1819292e-001  5.1746032e-001  5.1746032e-001  5.1697192e-001  5.1599512e-001  5.1623932e-001  5.1819292e-001  5.2136752e-001  5.2210012e-001  5.2258852e-001  5.2210012e-001  5.2112332e-001  5.1892552e-001  5.1623932e-001  5.0866911e-001  5.0061050e-001  4.9059829e-001  4.9133089e-001  4.9572650e-001  4.9084249e-001  4.7887668e-001  4.5934066e-001  4.3418803e-001  4.1514042e-001  4.0488400e-001  4.0048840e-001  3.9926740e-001  3.9609280e-001  3.9120879e-001  3.8510379e-001  3.8290598e-001  3.8656899e-001  3.9706960e-001  4.0854701e-001  4.1733822e-001  4.1953602e-001  4.2026862e-001  4.1831502e-001  4.1611722e-001  4.1733822e-001  4.2197802e-001  4.2637363e-001  4.3199023e-001  4.4249084e-001  4.5836386e-001  4.7179487e-001  4.8034188e-001  4.8644689e-001  5.0061050e-001  5.1697192e-001  5.3382173e-001  5.5067155e-001  5.6361416e-001  5.7338217e-001  5.8363858e-001  5.9682540e-001  6.0708181e-001  6.1123321e-001  6.0781441e-001  6.0561661e-001  6.0561661e-001  6.0927961e-001  6.1269841e-001  6.1440781e-001  6.1269841e-001  6.1074481e-001  6.1074481e-001  6.1050061e-001  6.0757021e-001  6.0610501e-001  6.0463980e-001  6.0244200e-001  5.9951160e-001  5.9731380e-001  5.9462759e-001  5.9365079e-001  5.9242979e-001  5.9169719e-001  5.9218559e-001  5.9365079e-001  5.9682540e-001  5.9731380e-001  5.9365079e-001  5.8852259e-001  5.8730159e-001  5.8803419e-001  5.8949939e-001  5.8803419e-001  5.8266178e-001  5.7240537e-001  5.6385836e-001  5.5848596e-001  5.5482295e-001  5.5189255e-001  5.4822955e-001  5.4554335e-001  5.4334554e-001  5.3894994e-001  5.3382173e-001  5.2796093e-001  5.2478632e-001  5.2698413e-001  5.3308913e-001  5.3797314e-001  5.3748474e-001  5.3504274e-001  5.3284493e-001  5.3211233e-001  5.3235653e-001  5.3382173e-001  5.3357753e-001  5.3455433e-001  5.3308913e-001  5.2918193e-001  5.2576313e-001  5.2429792e-001  5.2210012e-001  5.2136752e-001  5.2039072e-001  5.1892552e-001  5.1746032e-001  5.1819292e-001  5.1916972e-001  5.2039072e-001  5.2210012e-001  5.2185592e-001  5.2063492e-001  5.2185592e-001  5.2478632e-001  5.2649573e-001  5.2796093e-001  5.3137973e-001  5.3382173e-001  5.3308913e-001  5.3064713e-001  5.2698413e-001  5.2771673e-001  5.2771673e-001  5.2869353e-001  5.2991453e-001  5.3211233e-001  5.3137973e-001  5.2869353e-001  5.2796093e-001  5.2625153e-001  5.2356532e-001  5.2869353e-001  5.3431013e-001  5.3089133e-001  5.2332112e-001  5.1819292e-001  5.1746032e-001  5.2039072e-001  5.2625153e-001  5.3211233e-001  5.4017094e-001  5.4603175e-001  5.4603175e-001  5.4017094e-001  5.2918193e-001  5.1770452e-001  5.1159951e-001  5.0671551e-001  5.0158730e-001  4.9499389e-001  4.9572650e-001  4.9523810e-001  4.9206349e-001  4.8620269e-001  4.8107448e-001  4.7692308e-001  4.7545788e-001  4.7667888e-001  4.7985348e-001  4.8424908e-001  4.8473748e-001  4.8278388e-001  4.8253968e-001  4.8253968e-001  4.8547009e-001  4.9157509e-001  5.0231990e-001  5.0793651e-001  5.0891331e-001  5.1013431e-001  5.1111111e-001  5.1306471e-001  5.1623932e-001  5.1623932e-001  5.1233211e-001  5.1013431e-001  5.0744811e-001  5.0451770e-001  4.9572650e-001  4.9279609e-001  4.9304029e-001  4.9206349e-001  4.8986569e-001  4.8913309e-001  4.8840049e-001  4.8791209e-001  4.8840049e-001  4.8864469e-001  4.8864469e-001  4.8864469e-001  4.8937729e-001  4.8791209e-001  4.8278388e-001  4.7594628e-001  4.6813187e-001  4.6007326e-001  4.5470085e-001  4.5054945e-001  4.4908425e-001  4.4884005e-001  4.4835165e-001  4.4664225e-001  4.4444444e-001  4.4297924e-001  4.4224664e-001  4.4322344e-001  4.4664225e-001  4.5054945e-001  4.5616606e-001  4.5836386e-001  4.5909646e-001  4.6227106e-001  4.6935287e-001  4.7594628e-001  4.8131868e-001  4.8644689e-001  4.9206349e-001  5.0280830e-001  5.1184371e-001  5.1843712e-001  5.1990232e-001  5.1990232e-001  5.2112332e-001  5.2429792e-001  5.2771673e-001  5.2942613e-001  5.2844933e-001  5.2771673e-001  5.2869353e-001  5.3308913e-001  5.3724054e-001  5.3748474e-001  5.3797314e-001  5.4041514e-001  5.4407814e-001  5.4969475e-001  5.5653236e-001  5.6214896e-001  5.6385836e-001  5.6141636e-001  5.5873016e-001  5.5702076e-001  5.5579976e-001  5.5555556e-001  5.5653236e-001  5.5726496e-001  5.5873016e-001  5.5995116e-001  5.5921856e-001  5.5726496e-001  5.5799756e-001  5.5775336e-001  5.5799756e-001  5.5848596e-001  5.5921856e-001  5.5775336e-001  5.5409035e-001  5.4993895e-001  5.4554335e-001  5.4456654e-001  5.4383394e-001  5.4163614e-001  5.3968254e-001  5.3601954e-001  5.3137973e-001  5.2796093e-001  5.2429792e-001  5.2332112e-001  5.2356532e-001  5.2576313e-001  5.2625153e-001  5.2576313e-001  5.2356532e-001  5.2112332e-001  5.1965812e-001  5.1892552e-001  5.1477411e-001  5.0940171e-001  5.0525031e-001  5.0525031e-001  5.0720391e-001  5.0940171e-001  5.1257631e-001  5.1672772e-001  5.1892552e-001  5.1916972e-001  5.1965812e-001  5.1965812e-001  5.1990232e-001  5.2039072e-001  5.2039072e-001  5.1990232e-001  5.2283272e-001  5.2625153e-001  5.2918193e-001  5.2918193e-001  5.2942613e-001  5.3064713e-001  5.3211233e-001  5.3284493e-001  5.3601954e-001  5.4017094e-001  5.4554335e-001  5.4969475e-001  5.5213675e-001  5.9365079e-001  7.1599512e-001  6.9426129e-001  6.6788767e-001  6.2881563e-001  5.8583639e-001  5.7997558e-001  5.9755800e-001  5.9096459e-001  5.5921856e-001  5.4407814e-001  5.5115995e-001  5.5067155e-001  5.3382173e-001  5.2478632e-001  5.2625153e-001  5.2258852e-001  5.1013431e-001  5.0500611e-001  5.1037851e-001  5.1526252e-001  5.1159951e-001  5.0573871e-001  5.0207570e-001  5.0012210e-001  4.8913309e-001  4.8180708e-001  4.7692308e-001  4.7667888e-001  4.7741148e-001  4.7619048e-001  4.7594628e-001  4.7667888e-001  4.7741148e-001  4.7814408e-001  4.8180708e-001  4.8498168e-001  4.8913309e-001  4.9426129e-001  5.0525031e-001  5.1233211e-001  5.1916972e-001  5.2356532e-001  5.2918193e-001  5.3528694e-001  5.4261294e-001  5.4774115e-001  5.5067155e-001  5.5335775e-001  5.5653236e-001  5.5848596e-001  5.5873016e-001  5.5848596e-001  5.5873016e-001  5.5873016e-001  5.5579976e-001  5.5140415e-001  5.4529915e-001  5.4163614e-001  5.3943834e-001  5.3870574e-001  5.3650794e-001  5.3382173e-001  5.3089133e-001  5.3162393e-001  5.3089133e-001  5.2991453e-001  5.2918193e-001  5.2844933e-001  5.2429792e-001  5.1746032e-001  5.1159951e-001  5.0500611e-001  4.9499389e-001  4.9010989e-001  4.8473748e-001  4.7667888e-001  4.7032967e-001  4.6715507e-001  4.6129426e-001  4.5543346e-001  4.4981685e-001  4.4615385e-001  4.4590965e-001  4.4737485e-001  4.5347985e-001  4.6227106e-001  4.7228327e-001  4.7985348e-001  4.8644689e-001  4.9084249e-001  4.9426129e-001  5.0061050e-001  5.0134310e-001  5.0158730e-001  5.0231990e-001  5.0085470e-001  4.9352869e-001  4.8937729e-001  4.8498168e-001  4.8205128e-001  4.8107448e-001  4.8107448e-001  4.8278388e-001  4.8620269e-001  4.8840049e-001  4.8986569e-001  4.9133089e-001  4.9377289e-001  4.9572650e-001  5.0012210e-001  5.0134310e-001  5.0280830e-001  5.0427350e-001  5.0451770e-001  5.0158730e-001  4.9523810e-001  4.9157509e-001  4.8791209e-001  4.8547009e-001  4.8620269e-001  4.8644689e-001  4.8424908e-001  4.8034188e-001  4.7374847e-001  4.6642247e-001  4.6056166e-001  4.5763126e-001  4.5860806e-001  4.6227106e-001  4.6739927e-001  4.7448107e-001  4.8180708e-001  4.9084249e-001  5.0231990e-001  5.1111111e-001  5.1770452e-001  5.2332112e-001  5.2503053e-001  5.2722833e-001  5.2698413e-001  5.2698413e-001  5.2576313e-001  5.2356532e-001  5.2429792e-001  5.3089133e-001  5.4188034e-001  5.5775336e-001  5.7118437e-001  5.8339438e-001  5.9365079e-001  5.9658120e-001  5.9658120e-001  6.0317460e-001  6.1440781e-001  6.2954823e-001  6.4126984e-001  6.4273504e-001  6.3687424e-001  6.2905983e-001  6.2661783e-001  6.2735043e-001  6.2612943e-001  6.2002442e-001  6.1343101e-001  6.0757021e-001  6.0415140e-001  6.0195360e-001  6.0195360e-001  6.0122100e-001  5.9951160e-001  5.9511600e-001  5.9096459e-001  5.8437118e-001  5.7899878e-001  5.7338217e-001  5.6800977e-001  5.6434676e-001  5.6141636e-001  5.5799756e-001  5.5262515e-001  5.4627595e-001  5.4163614e-001  5.4090354e-001  5.4163614e-001  5.4456654e-001  5.4700855e-001  5.4749695e-001  5.4774115e-001  5.4700855e-001  5.4529915e-001  5.4529915e-001  5.4383394e-001  5.4481074e-001  5.4749695e-001  5.5140415e-001  5.5702076e-001  5.6361416e-001  5.6800977e-001  5.7045177e-001  5.7240537e-001  5.7240537e-001  5.7118437e-001  5.7094017e-001  5.7167277e-001  5.7264957e-001  5.7680098e-001  5.8510379e-001  5.9365079e-001  5.9731380e-001  5.9804640e-001  5.9609280e-001  5.9584860e-001  5.9975580e-001  6.1074481e-001  6.2368742e-001  6.3711844e-001  6.5152625e-001  6.6764347e-001  6.8473748e-001  7.0305250e-001  7.2503053e-001  7.4920635e-001  7.7313797e-001  7.9536020e-001  8.2002442e-001  8.4932845e-001  8.8376068e-001  9.2918193e-001  9.8070818e-001  1.0000000e+000  1.0000000e+000  1.0000000e+000  1.0000000e+000  1.0000000e+000  1.0000000e+000  1.0000000e+000  1.0000000e+000  1.0000000e+000  1.0000000e+000  1.0000000e+000  1.0000000e+000  1.0000000e+000  1.0000000e+000  1.0000000e+000  1.0000000e+000  1.0000000e+000  1.0000000e+000  1.0000000e+000  1.0000000e+000  1.0000000e+000  1.0000000e+000  1.0000000e+000  1.0000000e+000  1.0000000e+000  1.0000000e+000  1.0000000e+000  1.0000000e+000  1.0000000e+000  1.0000000e+000  1.0000000e+000  1.0000000e+000  1.0000000e+000  1.0000000e+000  1.0000000e+000  1.0000000e+000  1.0000000e+000  1.0000000e+000  1.0000000e+000  1.0000000e+000  1.0000000e+000  1.0000000e+000  1.0000000e+000  1.0000000e+000  1.0000000e+000  1.0000000e+000  1.0000000e+000  1.0000000e+000  1.0000000e+000  1.0000000e+000  1.0000000e+000  1.0000000e+000  1.0000000e+000  1.0000000e+000  1.0000000e+000  1.0000000e+000  1.0000000e+000  1.0000000e+000  1.0000000e+000  1.0000000e+000  1.0000000e+000  1.0000000e+000  9.9658120e-001  9.8632479e-001  9.7924298e-001  9.7313797e-001  9.6678877e-001  9.5921856e-001  9.4847375e-001  9.3821734e-001  9.2844933e-001  9.1990232e-001  9.1306471e-001  9.0866911e-001  9.0500611e-001  9.0427350e-001  9.0500611e-001  9.0818071e-001  9.1184371e-001  9.1672772e-001  9.2503053e-001  9.3357753e-001  9.4407814e-001  9.5579976e-001  9.7387057e-001  1.0000000e+000  1.0000000e+000  1.0000000e+000  1.0000000e+000  1.0000000e+000  1.0000000e+000  1.0000000e+000  1.0000000e+000  1.0000000e+000  1.0000000e+000  1.0000000e+000  1.0000000e+000  1.0000000e+000  1.0000000e+000  1.0000000e+000  1.0000000e+000  1.0000000e+000  1.0000000e+000  1.0000000e+000  1.0000000e+000  1.0000000e+000  1.0000000e+000  1.0000000e+000  1.0000000e+000  1.0000000e+000  1.0000000e+000  1.0000000e+000  1.0000000e+000  1.0000000e+000  1.0000000e+000  1.0000000e+000  1.0000000e+000  1.0000000e+000  1.0000000e+000  1.0000000e+000  1.0000000e+000  1.0000000e+000  1.0000000e+000  1.0000000e+000  1.0000000e+000  1.0000000e+000  1.0000000e+000  1.0000000e+000  1.0000000e+000  1.0000000e+000  1.0000000e+000  1.0000000e+000  1.0000000e+000  1.0000000e+000  1.0000000e+000  1.0000000e+000  1.0000000e+000  1.0000000e+000  1.0000000e+000  1.0000000e+000  1.0000000e+000  1.0000000e+000  1.0000000e+000  1.0000000e+000  1.0000000e+000  1.0000000e+000  1.0000000e+000  1.0000000e+000  1.0000000e+000  1.0000000e+000  1.0000000e+000  1.0000000e+000  1.0000000e+000  1.0000000e+000  1.0000000e+000  1.0000000e+000  1.0000000e+000  1.0000000e+000  1.0000000e+000  1.0000000e+000  1.0000000e+000  1.0000000e+000  1.0000000e+000  1.0000000e+000  1.0000000e+000  1.0000000e+000  1.0000000e+000  1.0000000e+000  1.0000000e+000  1.0000000e+000  1.0000000e+000  1.0000000e+000  1.0000000e+000  1.0000000e+000  1.0000000e+000  1.0000000e+000  1.0000000e+000  1.0000000e+000  1.0000000e+000  1.0000000e+000  1.0000000e+000  1.0000000e+000  1.0000000e+000  1.0000000e+000  1.0000000e+000  1.0000000e+000  1.0000000e+000  1.0000000e+000  1.0000000e+000  1.0000000e+000  1.0000000e+000  1.0000000e+000  1.0000000e+000  1.0000000e+000  1.0000000e+000  1.0000000e+000  1.0000000e+000  1.0000000e+000  1.0000000e+000  1.0000000e+000  1.0000000e+000  1.0000000e+000  1.0000000e+000  1.0000000e+000  1.0000000e+000  1.0000000e+000  1.0000000e+000  1.0000000e+000  1.0000000e+000  1.0000000e+000  1.0000000e+000  1.0000000e+000  1.0000000e+000  1.0000000e+000  1.0000000e+000  1.0000000e+000  1.0000000e+000  1.0000000e+000  1.0000000e+000  1.0000000e+000  1.0000000e+000  1.0000000e+000  1.0000000e+000  1.0000000e+000  1.0000000e+000  1.0000000e+000  1.0000000e+000  1.0000000e+000  1.0000000e+000  1.0000000e+000  1.0000000e+000  1.0000000e+000  1.0000000e+000  1.0000000e+000  1.0000000e+000  1.0000000e+000  1.0000000e+000  1.0000000e+000  1.0000000e+000  1.0000000e+000  1.0000000e+000  1.0000000e+000  1.0000000e+000  1.0000000e+000  1.0000000e+000  1.0000000e+000  1.0000000e+000  1.0000000e+000  1.0000000e+000  1.0000000e+000  1.0000000e+000  1.0000000e+000  1.0000000e+000  1.0000000e+000  1.0000000e+000  1.0000000e+000  1.0000000e+000  1.0000000e+000  1.0000000e+000  1.0000000e+000  1.0000000e+000  1.0000000e+000  1.0000000e+000  1.0000000e+000  1.0000000e+000  1.0000000e+000  1.0000000e+000  1.0000000e+000  1.0000000e+000  1.0000000e+000  1.0000000e+000  1.0000000e+000  1.0000000e+000  1.0000000e+000  1.0000000e+000  9.9438339e-001  9.8046398e-001  9.6727717e-001  9.4896215e-001  9.2478632e-001  8.9792430e-001  8.6935287e-001  8.3980464e-001  8.1123321e-001  7.8656899e-001  7.6581197e-001  7.4310134e-001  7.1819292e-001  6.9352869e-001  6.7277167e-001  6.5811966e-001  6.4664225e-001  6.3492063e-001  6.1953602e-001  6.0122100e-001  5.8778999e-001  5.7680098e-001  5.6947497e-001  5.6092796e-001  5.4896215e-001  5.3650794e-001  5.2796093e-001  5.2112332e-001  5.1306471e-001  5.0012210e-001  4.8205128e-001  4.6788767e-001  4.5689866e-001  4.4590965e-001  4.3418803e-001  4.2051282e-001  4.0586081e-001  3.9120879e-001  3.7509158e-001  3.5970696e-001  3.4774115e-001  3.3675214e-001  3.2673993e-001  3.1770452e-001  3.0964591e-001  2.9963370e-001  2.8864469e-001  2.7838828e-001  2.7081807e-001  2.6129426e-001  2.4957265e-001  2.4078144e-001  2.3003663e-001  2.1831502e-001  2.0854701e-001  2.0073260e-001  1.9194139e-001  1.8241758e-001  1.7411477e-001  1.6630037e-001  1.6190476e-001  1.6117216e-001  1.5824176e-001  1.5286935e-001  1.4700855e-001  1.4261294e-001  1.3968254e-001  1.3626374e-001  1.3040293e-001  1.2600733e-001  1.2454212e-001  1.2161172e-001  1.1623932e-001  1.1330891e-001  1.1477411e-001  1.1770452e-001  1.1990232e-001  1.1868132e-001  1.1550672e-001  1.1037851e-001  1.0842491e-001  1.0671551e-001  1.0525031e-001  1.0256410e-001  9.8901099e-002  9.4261294e-002  8.8644689e-002  8.4249084e-002  8.3516484e-002  8.5470085e-002  8.6202686e-002  8.4981685e-002  8.2539683e-002  7.8144078e-002  7.6190476e-002  7.5946276e-002  7.6190476e-002  7.6923077e-002  7.4481074e-002  7.1794872e-002  6.7399267e-002  6.5201465e-002  6.6666667e-002  7.3748474e-002  7.5457875e-002  7.5946276e-002  7.2283272e-002  6.6666667e-002  6.4957265e-002  6.5201465e-002  6.3492063e-002  5.8363858e-002  5.0305250e-002  4.5421245e-002  4.4444444e-002  4.7374847e-002  5.0549451e-002  5.3968254e-002  5.4945055e-002  5.4700855e-002  5.3968254e-002  5.2503053e-002  5.2747253e-002  5.4212454e-002  5.4945055e-002  5.2503053e-002  5.4700855e-002  6.4468864e-002  7.3748474e-002  7.8876679e-002  7.8144078e-002  7.4725275e-002  7.5457875e-002  7.9853480e-002  8.2051282e-002  7.9609280e-002  7.6190476e-002  7.3260073e-002  7.3748474e-002  7.4481074e-002  7.5213675e-002  7.6923077e-002  7.9853480e-002  8.2051282e-002  8.4249084e-002  8.7179487e-002  9.0598291e-002  9.5970696e-002  1.0525031e-001  1.1721612e-001  1.2454212e-001  1.2747253e-001  1.2356532e-001  1.1037851e-001  9.6459096e-002  8.5470085e-002  8.1807082e-002  8.5714286e-002  9.2307692e-002  1.0012210e-001  1.0525031e-001  1.1184371e-001  1.2454212e-001  1.3626374e-001  1.4407814e-001  1.4993895e-001  1.5018315e-001  1.4871795e-001  1.5091575e-001  1.5067155e-001  1.4700855e-001  1.4139194e-001  1.3821734e-001  1.3528694e-001  1.3260073e-001  1.2942613e-001  1.2747253e-001  1.2503053e-001  1.2454212e-001  1.2210012e-001  1.2136752e-001  1.2087912e-001  1.2454212e-001  1.2869353e-001  1.3333333e-001  1.3699634e-001  1.3748474e-001  1.3333333e-001  1.2454212e-001  1.1477411e-001  1.0622711e-001  1.0695971e-001  1.1868132e-001  1.2893773e-001  1.3772894e-001  1.3992674e-001  1.3919414e-001  1.4041514e-001  1.4554335e-001  1.5091575e-001  1.4993895e-001  1.4700855e-001  1.4652015e-001  1.4920635e-001  1.4700855e-001  1.4114774e-001  1.3528694e-001  1.3479853e-001  1.4114774e-001  1.5213675e-001  1.5873016e-001  1.5677656e-001  1.4920635e-001  1.4041514e-001  1.3382173e-001  1.2967033e-001  1.2722833e-001  1.2527473e-001  1.2527473e-001  1.2796093e-001  1.3455433e-001  1.4261294e-001  1.5286935e-001  1.6166056e-001  1.6678877e-001  1.7045177e-001  1.7631258e-001  1.8168498e-001  1.8681319e-001  1.9023199e-001  1.9194139e-001  1.9316239e-001  1.9706960e-001  1.9975580e-001  2.0293040e-001  2.0341880e-001  2.0366300e-001  2.0219780e-001  2.0048840e-001  1.9780220e-001  1.9462759e-001  1.9096459e-001  1.8901099e-001  1.8876679e-001  1.8876679e-001  1.8876679e-001  1.9047619e-001  1.9487179e-001  1.9780220e-001  2.0000000e-001  2.0000000e-001  2.0219780e-001  2.0439560e-001  2.0805861e-001  2.1172161e-001  2.1465201e-001  2.1758242e-001  2.2173382e-001  2.2759463e-001  2.3223443e-001  2.3589744e-001  2.3956044e-001  2.4224664e-001  2.4517705e-001  2.4737485e-001  2.4761905e-001  2.4810745e-001  2.4957265e-001  2.5030525e-001  2.5103785e-001  2.5177045e-001  2.4981685e-001  2.4884005e-001  2.4835165e-001  2.4761905e-001  2.4517705e-001  2.4395604e-001  2.4371184e-001  2.4615385e-001  2.4835165e-001  2.5054945e-001  2.5201465e-001  2.5543346e-001  2.5836386e-001  2.5860806e-001  2.5836386e-001  2.5860806e-001  2.6300366e-001  2.6862027e-001  2.7326007e-001  2.7741148e-001  2.7741148e-001  2.7619048e-001  2.7594628e-001  2.7594628e-001  2.7619048e-001  2.7741148e-001  2.8034188e-001  2.8400488e-001  2.8571429e-001  2.8424908e-001  2.8547009e-001  2.8571429e-001  2.8644689e-001  2.8791209e-001  2.8937729e-001  2.9010989e-001  2.9010989e-001  2.9279609e-001  2.9426129e-001  2.9450549e-001  2.9743590e-001  2.9499389e-001  2.9743590e-001  3.0183150e-001  3.0329670e-001  3.0525031e-001  3.0744811e-001  3.0769231e-001  3.0891331e-001  3.0989011e-001  3.1062271e-001  3.1208791e-001  3.1501832e-001  3.1721612e-001  3.1697192e-001  3.2014652e-001  3.2087912e-001  3.2307692e-001  3.2454212e-001  3.2747253e-001  3.2893773e-001  3.2869353e-001  3.2576313e-001  3.2234432e-001  3.2136752e-001  3.2283272e-001  3.2356532e-001  3.2283272e-001  3.2136752e-001  3.2063492e-001  3.2136752e-001  3.2087912e-001  3.2014652e-001  3.2087912e-001  3.2234432e-001  3.2283272e-001  3.2356532e-001  3.2429792e-001  3.2429792e-001  3.2454212e-001  3.2722833e-001  3.2673993e-001  3.2454212e-001  3.2136752e-001  3.1941392e-001  3.2087912e-001  3.2576313e-001  3.2967033e-001  3.3113553e-001  3.3089133e-001  3.2942613e-001  3.2796093e-001  3.2796093e-001  3.3089133e-001  3.3553114e-001  3.4041514e-001  3.4334554e-001  3.4554335e-001  3.4993895e-001  3.5360195e-001  3.5384615e-001  3.5433455e-001  3.5213675e-001  3.4945055e-001  3.4798535e-001  3.4774115e-001  3.4554335e-001  3.4627595e-001  3.5091575e-001  3.5506716e-001  3.5726496e-001  3.5799756e-001  3.5653236e-001  3.5750916e-001  3.6043956e-001  3.6117216e-001  3.5824176e-001  3.5604396e-001  3.5433455e-001  3.5457875e-001  3.5604396e-001  3.5653236e-001  3.5579976e-001  3.5604396e-001  3.5604396e-001  3.5433455e-001  3.5433455e-001  3.5433455e-001  3.5653236e-001  3.5946276e-001  3.6190476e-001  3.6385836e-001  3.6532357e-001  3.6630037e-001  3.6898657e-001  3.7142857e-001  3.7411477e-001  3.7655678e-001  3.7924298e-001  3.8144078e-001  3.8241758e-001  3.8168498e-001  3.8144078e-001  3.8095238e-001  3.8095238e-001  3.8217338e-001  3.8168498e-001  3.8290598e-001  3.8608059e-001  3.8827839e-001  3.8974359e-001  3.9169719e-001  3.9242979e-001  3.9194139e-001  3.9047619e-001  3.9096459e-001  3.9096459e-001  3.9536020e-001  4.0000000e-001  4.0293040e-001  4.0293040e-001  4.0219780e-001  4.0366300e-001  4.0439560e-001  4.0561661e-001  4.0732601e-001  4.0879121e-001  4.1147741e-001  4.1440781e-001  4.1538462e-001  4.1514042e-001  4.1440781e-001  4.1611722e-001  4.1880342e-001  4.2051282e-001  4.1904762e-001  4.1904762e-001  4.1904762e-001  4.2124542e-001  4.2319902e-001  4.2319902e-001  4.2051282e-001  4.1831502e-001  4.1880342e-001  4.1953602e-001  4.1733822e-001  4.1587302e-001  4.1245421e-001  4.1318681e-001  4.1684982e-001  4.2100122e-001  4.2246642e-001  4.2051282e-001  4.1611722e-001  4.1391941e-001  4.1294261e-001  4.1221001e-001  4.1172161e-001  4.1172161e-001  4.1221001e-001  4.1245421e-001  4.1391941e-001  4.1587302e-001  4.1758242e-001  4.1684982e-001  4.1660562e-001  4.1587302e-001  4.1465201e-001  4.1514042e-001  4.1758242e-001  4.2100122e-001  4.2612943e-001  4.3003663e-001  4.3272283e-001  4.3369963e-001  4.3369963e-001  4.3418803e-001  4.3663004e-001  4.3956044e-001  4.4102564e-001  4.4102564e-001  4.3809524e-001  4.3638584e-001  4.3516484e-001  4.3565324e-001  4.3296703e-001  4.2979243e-001  4.2832723e-001  4.2832723e-001  4.2759463e-001  4.2710623e-001  4.2490842e-001  4.2100122e-001  4.1831502e-001  4.1758242e-001  4.1611722e-001  4.1514042e-001  4.1221001e-001  4.1221001e-001  4.1440781e-001  4.1465201e-001  4.1440781e-001  4.1318681e-001  4.1245421e-001  4.1318681e-001  4.1514042e-001  4.1660562e-001  4.1514042e-001  4.1514042e-001  4.1880342e-001  4.2124542e-001  4.2246642e-001  4.2124542e-001  4.2026862e-001  4.2051282e-001  4.2173382e-001  4.2051282e-001  4.1733822e-001  4.1367521e-001  4.1367521e-001  4.1440781e-001  4.1733822e-001  4.1684982e-001  4.1514042e-001  4.1318681e-001  4.1172161e-001  4.1172161e-001  4.1147741e-001  4.1172161e-001  4.1367521e-001  4.1514042e-001  4.1391941e-001  4.1221001e-001  4.1245421e-001  4.1465201e-001  4.1758242e-001  4.2051282e-001  4.1978022e-001  4.1831502e-001  4.1758242e-001  4.1978022e-001  4.2246642e-001  4.2271062e-001  4.2197802e-001  4.2173382e-001  4.2319902e-001  4.2417582e-001  4.2686203e-001  4.2857143e-001  4.2905983e-001  4.3125763e-001  4.3296703e-001  4.3492063e-001  4.3785104e-001  4.3565324e-001  4.3418803e-001  4.3003663e-001  4.2686203e-001  4.2637363e-001  4.2710623e-001  4.2686203e-001  4.2564103e-001  4.2344322e-001  4.2319902e-001  4.2100122e-001  4.1904762e-001  4.1880342e-001  4.1953602e-001  4.1953602e-001  4.1880342e-001  4.1904762e-001  4.1880342e-001  4.1953602e-001  4.2197802e-001  4.2466422e-001  4.2686203e-001  4.2759463e-001  4.2857143e-001  4.3199023e-001  4.3492063e-001  4.3663004e-001  4.3809524e-001  4.3785104e-001  4.3565324e-001  4.3492063e-001  4.3418803e-001  4.3443223e-001  4.3296703e-001  4.3369963e-001  4.3443223e-001  4.3516484e-001  4.3418803e-001  4.3345543e-001  4.3003663e-001  4.2490842e-001  4.1953602e-001  4.1587302e-001  4.1538462e-001  4.1660562e-001  4.1660562e-001  4.1758242e-001  4.1733822e-001  4.1538462e-001  4.1538462e-001  4.1831502e-001  4.2100122e-001  4.2319902e-001  4.2490842e-001  4.2612943e-001  4.2686203e-001  4.2466422e-001  4.2490842e-001  4.2612943e-001  4.2832723e-001  4.3003663e-001  4.3199023e-001  4.2930403e-001  4.2417582e-001  4.1831502e-001  4.1440781e-001  4.1294261e-001  4.1440781e-001  4.1733822e-001  4.2051282e-001  4.2173382e-001  4.2319902e-001  4.2393162e-001  4.2319902e-001  4.2100122e-001  4.2051282e-001  4.1978022e-001  4.1978022e-001  4.1978022e-001  4.1953602e-001  4.2051282e-001  4.2466422e-001  4.2905983e-001  4.2930403e-001  4.2905983e-001  4.2930403e-001  4.3003663e-001  4.3125763e-001  4.3272283e-001  4.3150183e-001  4.3052503e-001  4.2857143e-001  4.2857143e-001  4.2539683e-001  4.2051282e-001  4.1758242e-001  4.1660562e-001  4.1684982e-001  4.1807082e-001  4.1978022e-001  4.2564103e-001  4.3052503e-001  4.3272283e-001  4.3492063e-001  4.3858364e-001  4.4151404e-001  4.4590965e-001  4.5103785e-001  4.5323565e-001  4.5177045e-001  4.4957265e-001  4.4761905e-001  4.4444444e-001  4.4078144e-001  4.3736264e-001  4.3663004e-001  4.3736264e-001  4.4004884e-001  4.4249084e-001  4.4542125e-001  4.4615385e-001  4.4468864e-001  4.4297924e-001  4.4078144e-001  4.3882784e-001  4.3882784e-001  4.3809524e-001  4.3663004e-001  4.3443223e-001  4.3443223e-001  4.3443223e-001  4.3369963e-001  4.3296703e-001  4.2930403e-001  4.2759463e-001  4.2686203e-001  4.2612943e-001  4.2539683e-001  4.2490842e-001  4.2393162e-001  4.2393162e-001  4.2466422e-001  4.2710623e-001  4.2710623e-001  4.2710623e-001  4.2979243e-001  4.3223443e-001  4.3418803e-001  4.3516484e-001  4.3223443e-001  4.2759463e-001  4.2246642e-001  4.1807082e-001  4.1684982e-001  4.1807082e-001  4.2100122e-001  4.2344322e-001  4.2564103e-001  4.2637363e-001  4.2686203e-001  4.2637363e-001  4.2564103e-001  4.2490842e-001  4.2759463e-001  4.3076923e-001  4.3345543e-001  4.3565324e-001  4.3956044e-001  4.4151404e-001  4.4224664e-001  4.4322344e-001  4.4542125e-001  4.4835165e-001  4.4981685e-001  4.5054945e-001  4.5054945e-001  4.5128205e-001  4.5177045e-001  4.5396825e-001  4.5836386e-001  4.6227106e-001  4.6520147e-001  4.6520147e-001  4.5860806e-001  4.4810745e-001  4.4102564e-001  4.4029304e-001  4.4224664e-001  4.4542125e-001  4.4761905e-001  4.4737485e-001  4.4542125e-001  4.4444444e-001  4.4224664e-001  4.3882784e-001  4.3663004e-001  4.3663004e-001  4.3858364e-001  4.4102564e-001  4.4297924e-001  4.4395604e-001  4.4517705e-001  4.4542125e-001  4.4688645e-001  4.4908425e-001  4.5030525e-001  4.4981685e-001  4.5054945e-001  4.5323565e-001  4.5836386e-001  4.6202686e-001  4.6153846e-001  4.5909646e-001  4.5641026e-001  4.5421245e-001  4.5470085e-001  4.5567766e-001  4.5689866e-001  4.5763126e-001  4.6007326e-001  4.6227106e-001  4.6349206e-001  4.6495726e-001  4.6446886e-001  4.6349206e-001  4.6349206e-001  4.6373626e-001  4.6422466e-001  4.6495726e-001  4.6715507e-001  4.6642247e-001  4.6349206e-001  4.6275946e-001  4.6202686e-001  4.6227106e-001  4.6129426e-001  4.5934066e-001  4.6007326e-001  4.6349206e-001  4.6715507e-001  4.7106227e-001  4.7374847e-001  4.7594628e-001  4.7814408e-001  4.8327228e-001  4.8986569e-001  4.9523810e-001  4.9572650e-001  4.9279609e-001  4.8693529e-001  4.8107448e-001  4.7619048e-001  4.7081807e-001  4.6422466e-001  4.5714286e-001  4.4688645e-001  4.3711844e-001  4.2930403e-001  4.2124542e-001  4.1684982e-001  4.1831502e-001  4.2612943e-001  4.3492063e-001  4.4468864e-001  4.5347985e-001  4.5909646e-001  4.6422466e-001  4.6886447e-001  4.6935287e-001  4.6813187e-001  4.6642247e-001  4.6593407e-001  4.6715507e-001  4.6666667e-001  4.6520147e-001  4.6349206e-001  4.6202686e-001  4.5909646e-001  4.5567766e-001  4.5201465e-001  4.4981685e-001  4.4737485e-001  4.4542125e-001  4.4078144e-001  4.3858364e-001  4.4151404e-001  4.4761905e-001  4.5763126e-001  4.6642247e-001  4.7106227e-001  4.7594628e-001  4.7960928e-001  4.8571429e-001  4.9499389e-001  5.0525031e-001  5.0891331e-001  5.0525031e-001  4.8547009e-001  4.5641026e-001  4.2783883e-001  4.1074481e-001  4.0561661e-001  4.0341880e-001  4.0268620e-001  4.0195360e-001  3.9902320e-001  3.9755800e-001  3.9829060e-001  3.9902320e-001  4.0146520e-001  4.0781441e-001  4.2197802e-001  4.3882784e-001  4.5689866e-001  4.7472527e-001  4.9377289e-001  5.1452991e-001  5.2503053e-001  5.2796093e-001  5.2551893e-001  5.2063492e-001  5.1623932e-001  5.1404151e-001  5.1452991e-001  5.1184371e-001  5.0793651e-001  4.9523810e-001  4.8473748e-001  4.7521368e-001  4.6739927e-001  4.6202686e-001  4.5616606e-001  4.5103785e-001  4.4468864e-001  4.4175824e-001  4.4102564e-001  4.4078144e-001  4.3931624e-001  4.3956044e-001  4.4004884e-001  4.4004884e-001  4.4004884e-001  4.4078144e-001  4.4151404e-001  4.4029304e-001  4.3736264e-001  4.3492063e-001  4.3223443e-001  4.2832723e-001  4.2417582e-001  4.2197802e-001  4.2344322e-001  4.2759463e-001  4.3711844e-001  4.4688645e-001  4.5177045e-001  4.4371184e-001  4.2417582e-001  4.1514042e-001  4.1807082e-001  4.1953602e-001  4.2271062e-001  4.1440781e-001  3.9706960e-001  3.8510379e-001  3.7997558e-001  3.7362637e-001  3.6898657e-001  3.6263736e-001  3.6312576e-001  3.7142857e-001  3.8363858e-001  3.9780220e-001  4.1147741e-001  4.2319902e-001  4.3516484e-001  4.4810745e-001  4.6007326e-001  4.7081807e-001  4.7960928e-001  4.8571429e-001  4.8840049e-001  4.9084249e-001  4.9133089e-001  4.9084249e-001  4.8937729e-001  4.8766789e-001  4.8327228e-001  4.7960928e-001  4.7741148e-001  4.7448107e-001  4.7155067e-001  4.6862027e-001  4.6495726e-001  4.6568987e-001  4.6739927e-001  4.6959707e-001  4.7179487e-001  4.7374847e-001  4.7594628e-001  4.7765568e-001  4.7814408e-001  4.7545788e-001  4.7179487e-001  4.7179487e-001  4.7374847e-001  4.7667888e-001  4.7887668e-001  4.7765568e-001  4.7814408e-001  4.8107448e-001  4.8644689e-001  4.9133089e-001  4.9597070e-001  4.9597070e-001  4.8986569e-001  4.7912088e-001  4.6422466e-001  4.4395604e-001  4.2686203e-001  4.1587302e-001  4.1172161e-001  4.1538462e-001  4.2393162e-001  4.3418803e-001  4.4664225e-001  4.5763126e-001  4.6080586e-001  4.5347985e-001  4.4175824e-001  4.3785104e-001  4.4468864e-001  4.5836386e-001  4.6666667e-001  4.6715507e-001  4.5763126e-001  4.4737485e-001  4.4297924e-001  4.4102564e-001  4.3736264e-001  4.3418803e-001  4.3199023e-001  4.3125763e-001  4.2979243e-001  4.3223443e-001  4.3663004e-001  4.4004884e-001  4.4224664e-001  4.4224664e-001  4.4249084e-001  4.4322344e-001  4.4249084e-001  4.4249084e-001  4.4249084e-001  4.4175824e-001  4.4249084e-001  4.4371184e-001  4.4468864e-001  4.4224664e-001  4.3785104e-001  4.3199023e-001  4.2612943e-001  4.2344322e-001  4.2319902e-001  4.2490842e-001  4.2832723e-001  4.3296703e-001  4.3956044e-001  4.4664225e-001  4.5128205e-001  4.5347985e-001  4.5323565e-001  4.5396825e-001  4.5689866e-001  4.6202686e-001  4.6739927e-001  4.7179487e-001  4.7326007e-001  4.7448107e-001  4.7814408e-001  4.8253968e-001  4.8547009e-001  4.8791209e-001  4.8791209e-001  4.8864469e-001  4.8717949e-001  4.8351648e-001  4.7814408e-001  4.7448107e-001  4.6959707e-001  4.6520147e-001  4.6129426e-001  4.5714286e-001  4.5347985e-001  4.5177045e-001  4.4981685e-001  4.4908425e-001  4.4664225e-001  4.4395604e-001  4.4297924e-001  4.4224664e-001  4.3956044e-001  4.3736264e-001  4.3516484e-001  4.3199023e-001  4.2857143e-001  4.2490842e-001  4.2246642e-001  4.1953602e-001  4.1807082e-001  4.1758242e-001  4.1880342e-001  4.1904762e-001  4.2051282e-001  4.2051282e-001  4.1831502e-001  4.1294261e-001  4.0952381e-001  4.0927961e-001  4.1074481e-001  4.1221001e-001  4.1440781e-001  4.1538462e-001  4.1587302e-001  4.1953602e-001  4.2637363e-001  4.3223443e-001  4.3663004e-001  4.4078144e-001  4.4444444e-001  4.4664225e-001  4.4688645e-001  4.4664225e-001  4.4322344e-001  4.4078144e-001  4.3931624e-001  4.3858364e-001  4.3638584e-001  4.3443223e-001  4.3199023e-001  4.3003663e-001  4.2832723e-001  4.2637363e-001  4.2490842e-001  4.2539683e-001  4.2686203e-001  4.2759463e-001  4.2417582e-001  4.2173382e-001  4.2100122e-001  4.2344322e-001  4.2466422e-001  4.2344322e-001  4.2197802e-001  4.2271062e-001  4.2271062e-001  4.2197802e-001  4.2246642e-001  4.2271062e-001  4.2344322e-001  4.2417582e-001  4.2637363e-001  4.2759463e-001  4.2979243e-001  4.3125763e-001  4.3223443e-001  4.3296703e-001  4.3565324e-001  4.3809524e-001  4.4249084e-001  4.4664225e-001  4.5103785e-001  4.5641026e-001  4.6080586e-001  4.6349206e-001  4.6739927e-001  4.6959707e-001  4.6935287e-001  4.6935287e-001  4.7252747e-001  4.7545788e-001  4.7472527e-001  4.7374847e-001  4.7252747e-001  4.7228327e-001  4.7179487e-001  4.6959707e-001  4.6422466e-001  4.5787546e-001  4.5347985e-001  4.5030525e-001  4.4688645e-001  4.4371184e-001  4.4004884e-001  4.3565324e-001  4.3223443e-001  4.3052503e-001  4.3003663e-001  4.2930403e-001  4.3003663e-001  4.2979243e-001  4.3003663e-001  4.3296703e-001  4.3736264e-001  4.4151404e-001  4.4322344e-001  4.4468864e-001  4.4615385e-001  4.4737485e-001  4.4908425e-001  4.4957265e-001  4.4981685e-001  4.4835165e-001  4.4761905e-001  4.4468864e-001  4.4151404e-001  4.3785104e-001  4.3663004e-001  4.3711844e-001  4.3565324e-001  4.3369963e-001  4.3199023e-001  4.3052503e-001  4.2905983e-001  4.2857143e-001  4.2979243e-001  4.2783883e-001  4.2417582e-001  4.2124542e-001  4.2173382e-001  4.2564103e-001  4.3516484e-001  4.5030525e-001  4.6520147e-001  4.7619048e-001  4.8327228e-001  5.0012210e-001  5.1892552e-001  5.5042735e-001  6.0976801e-001  6.8742369e-001  7.5286935e-001  7.7557998e-001  7.4700855e-001  7.0720391e-001  6.8376068e-001  6.8693529e-001  6.9181929e-001  6.8449328e-001  6.6349206e-001  6.4566545e-001  6.3247863e-001  6.1562882e-001  5.9365079e-001  5.7313797e-001  5.5921856e-001  5.5213675e-001  5.4627595e-001  5.3870574e-001  5.3382173e-001  5.3064713e-001  5.2918193e-001  5.2698413e-001  5.2722833e-001  5.2991453e-001  5.3211233e-001  5.3162393e-001  5.3357753e-001  5.3821734e-001  5.4334554e-001  5.4456654e-001  5.4529915e-001  5.4749695e-001  5.5042735e-001  5.5433455e-001  5.6092796e-001  5.6507937e-001  5.6654457e-001  5.6800977e-001  5.7118437e-001  5.7338217e-001  5.7484737e-001  5.7753358e-001  5.7899878e-001  5.8070818e-001  5.8217338e-001  5.8339438e-001  5.8510379e-001  5.8803419e-001  5.9072039e-001  5.9145299e-001  5.9023199e-001  5.8876679e-001  5.8876679e-001  5.8632479e-001  5.8363858e-001  5.8266178e-001  5.7997558e-001  5.8217338e-001  5.8949939e-001  5.9951160e-001  6.0244200e-001  5.9902320e-001  5.8998779e-001  5.6947497e-001  5.3943834e-001  5.0793651e-001  4.7741148e-001  4.3882784e-001  4.1221001e-001  3.9755800e-001  3.7924298e-001  3.5531136e-001  3.4700855e-001  3.4041514e-001  3.5067155e-001  3.7118437e-001  3.7728938e-001  3.8144078e-001  3.9633700e-001  4.1318681e-001  4.1538462e-001  4.0879121e-001  4.5421245e-001  5.3431013e-001  6.2832723e-001  6.9255189e-001  6.9987790e-001  6.9352869e-001  7.0525031e-001  7.3601954e-001  7.6166056e-001  7.7411477e-001  7.7997558e-001  7.8925519e-001  8.0195360e-001  8.1343101e-001  8.1733822e-001  8.1855922e-001  8.1782662e-001  8.1343101e-001  8.1074481e-001  8.2832723e-001  8.7301587e-001  9.4261294e-001  1.0000000e+000  1.0000000e+000  1.0000000e+000  1.0000000e+000  1.0000000e+000  9.9877900e-001  9.0134310e-001  8.2735043e-001  7.5409035e-001  6.9621490e-001  6.8693529e-001  7.2185592e-001  7.3235653e-001  7.3211233e-001  7.3211233e-001  7.2625153e-001  7.3455433e-001  7.6239316e-001  7.8070818e-001  7.7191697e-001  7.5726496e-001  7.4603175e-001  7.2405372e-001  6.8376068e-001  6.3907204e-001  6.1660562e-001  6.1587302e-001  6.1587302e-001  6.0463980e-001  5.8266178e-001  5.5189255e-001  5.0964591e-001  4.7106227e-001  4.6788767e-001  4.8180708e-001  4.8717949e-001  4.7301587e-001  4.4615385e-001  4.1098901e-001  3.7802198e-001  3.5018315e-001  3.2503053e-001  3.0451770e-001  3.0744811e-001  3.2380952e-001  3.4285714e-001  3.5238095e-001  3.4920635e-001  3.4188034e-001  3.3382173e-001  3.2893773e-001  3.2600733e-001  3.2454212e-001  3.2161172e-001  3.1770452e-001  3.1208791e-001  3.0622711e-001  2.9890110e-001  2.9206349e-001  2.7960928e-001  2.6275946e-001  2.4371184e-001  2.3150183e-001  2.3223443e-001  2.4688645e-001  2.7448107e-001  3.0818071e-001  3.4041514e-001  3.8095238e-001  4.1953602e-001  4.5177045e-001  4.7081807e-001  4.6275946e-001  4.2417582e-001  3.7851038e-001  3.3675214e-001  3.0183150e-001  2.7765568e-001  2.5054945e-001  2.2051282e-001  1.9706960e-001  1.8974359e-001  2.0146520e-001  2.2490842e-001  2.5396825e-001  2.8278388e-001  3.0598291e-001  3.2820513e-001  3.4945055e-001  3.6776557e-001  3.8461538e-001  4.0122100e-001  4.1318681e-001  4.2173382e-001  4.2612943e-001  4.2564103e-001  4.2246642e-001  4.2124542e-001  4.2271062e-001  4.2637363e-001  4.2905983e-001  4.2979243e-001  4.3199023e-001  4.3345543e-001  4.3565324e-001  4.3882784e-001  4.4175824e-001  4.4517705e-001  4.5177045e-001  4.5860806e-001  4.6373626e-001  4.6666667e-001  4.6862027e-001  4.6862027e-001  4.7008547e-001  4.7228327e-001  4.7521368e-001  4.7814408e-001  4.8424908e-001  4.9133089e-001  5.0085470e-001  5.0866911e-001  5.1819292e-001  5.2625153e-001  5.3528694e-001  5.4407814e-001  5.5213675e-001  5.5848596e-001  5.6459096e-001  5.7118437e-001  5.7997558e-001  5.8705739e-001  5.9096459e-001  5.9169719e-001  5.9072039e-001  5.8949939e-001  5.8437118e-001  5.7557998e-001  5.6288156e-001  5.5067155e-001  5.4261294e-001  5.4236874e-001  5.4407814e-001  5.4749695e-001  5.4774115e-001  5.4554335e-001  5.4114774e-001  5.3431013e-001  5.2258852e-001  5.0891331e-001  4.9352869e-001  4.8278388e-001  4.7179487e-001  4.5787546e-001  4.4004884e-001  4.3076923e-001  4.1904762e-001  4.1660562e-001  4.1758242e-001  4.0659341e-001  3.9462759e-001  3.8876679e-001  3.9902320e-001  4.1831502e-001  4.4151404e-001  4.4737485e-001  4.3638584e-001  4.1953602e-001  4.0586081e-001  3.9413919e-001  3.8315018e-001  3.7362637e-001  3.7216117e-001  3.7875458e-001  3.8876679e-001  3.9829060e-001  4.0927961e-001  4.1978022e-001  4.2905983e-001  4.3711844e-001  4.4737485e-001  4.5860806e-001  4.6642247e-001  4.6959707e-001  4.6788767e-001  4.6422466e-001  4.6153846e-001  4.6300366e-001  4.6715507e-001  4.7545788e-001  4.8253968e-001  4.8791209e-001  4.9206349e-001  4.9523810e-001  5.0720391e-001  5.1990232e-001  5.2918193e-001  5.3162393e-001  5.2649573e-001  5.2136752e-001  5.1892552e-001  5.1697192e-001  5.1526252e-001  5.0891331e-001  5.0354090e-001  5.0573871e-001  5.0451770e-001  4.7448107e-001  4.3589744e-001  4.0879121e-001  3.9242979e-001  3.7875458e-001  3.5946276e-001  3.4212454e-001  3.4774115e-001  3.7362637e-001  3.7851038e-001  3.1208791e-001  1.6752137e-001  0.0000000e+000  0.0000000e+000  0.0000000e+000  0.0000000e+000  0.0000000e+000  0.0000000e+000  0.0000000e+000  0.0000000e+000  0.0000000e+000  0.0000000e+000  0.0000000e+000  0.0000000e+000  0.0000000e+000  0.0000000e+000  0.0000000e+000  0.0000000e+000  1.1721612e-002  1.2454212e-001  2.3150183e-001  3.3528694e-001  4.2710623e-001  5.0305250e-001  5.6385836e-001  6.2735043e-001  6.8766789e-001  7.3064713e-001  7.6385836e-001  7.9731380e-001  8.2026862e-001  7.9365079e-001  7.3821734e-001  6.9035409e-001  6.5958486e-001  6.5543346e-001  6.5323565e-001  6.3418803e-001  6.1440781e-001  5.9829060e-001  5.8705739e-001  5.7973138e-001  5.7460317e-001  5.7191697e-001  5.7045177e-001  5.7338217e-001  5.7313797e-001  5.7191697e-001  5.7387057e-001  5.7997558e-001  5.7973138e-001  5.7387057e-001  5.6361416e-001  5.5360195e-001  5.4700855e-001  5.4529915e-001  5.4334554e-001  5.4041514e-001  5.3821734e-001  5.3601954e-001  5.3308913e-001  5.3089133e-001  5.2918193e-001  5.2796093e-001  5.2796093e-001  5.2722833e-001  5.2576313e-001  5.2283272e-001  5.2210012e-001  5.2332112e-001  5.2551893e-001  5.2918193e-001  5.3601954e-001  5.4236874e-001  5.4554335e-001  5.4627595e-001  5.4896215e-001  5.5189255e-001  5.5775336e-001  5.6459096e-001  5.7045177e-001  5.7606838e-001  5.8144078e-001  5.8510379e-001  5.8852259e-001  5.9218559e-001  5.9365079e-001  5.9389499e-001  5.9536020e-001  5.9389499e-001  5.9242979e-001  5.9218559e-001  5.8925519e-001  5.8656899e-001  5.8363858e-001  5.8217338e-001  5.8119658e-001  5.8192918e-001  5.7973138e-001  5.7533578e-001  5.6898657e-001  5.6166056e-001  5.5115995e-001  5.3870574e-001  5.2796093e-001  5.2063492e-001  5.1697192e-001  5.1697192e-001  5.1819292e-001  5.1892552e-001  5.1746032e-001  5.1233211e-001  5.1013431e-001  5.0891331e-001  5.0866911e-001  5.0818071e-001  5.0964591e-001  5.1013431e-001  5.0940171e-001  5.0818071e-001  5.0500611e-001  5.0012210e-001  5.0085470e-001  5.0305250e-001  5.0305250e-001  5.0134310e-001  4.9523810e-001  4.9206349e-001  4.9059829e-001  4.8986569e-001  4.8937729e-001  4.8791209e-001  4.8693529e-001  4.8693529e-001  4.8791209e-001  4.8766789e-001  4.8473748e-001  4.8180708e-001  4.8131868e-001  4.8131868e-001  4.8205128e-001  4.8400488e-001  4.8400488e-001  4.8400488e-001  4.8327228e-001  4.8278388e-001  4.8107448e-001  4.8131868e-001  4.8180708e-001  4.8180708e-001  4.8058608e-001  4.8131868e-001  4.8278388e-001  4.8498168e-001  4.8766789e-001  4.8986569e-001  4.9059829e-001  4.8986569e-001  4.8864469e-001  4.8717949e-001  4.8571429e-001  4.8693529e-001  4.9084249e-001  4.9352869e-001  4.9133089e-001  4.8693529e-001  4.8327228e-001  4.8253968e-001  4.8400488e-001  4.8400488e-001  4.8400488e-001  4.8278388e-001  4.8327228e-001  4.8400488e-001  4.8400488e-001  4.8205128e-001  4.8180708e-001  4.8253968e-001  4.8498168e-001  4.8693529e-001  4.8840049e-001  4.8840049e-001  4.8766789e-001  4.8644689e-001  4.8473748e-001  4.8400488e-001  4.8253968e-001  4.8058608e-001  4.7985348e-001  4.7985348e-001  4.7960928e-001  4.7814408e-001  4.7619048e-001  4.7472527e-001  4.7448107e-001  4.7594628e-001  4.7765568e-001  4.8107448e-001  4.8205128e-001  4.8327228e-001  4.8180708e-001  4.8107448e-001  4.7960928e-001  4.7667888e-001  4.7228327e-001  4.7008547e-001  4.7155067e-001  4.7545788e-001  4.7960928e-001  4.8327228e-001  4.8473748e-001  4.8424908e-001  4.8473748e-001  4.8498168e-001  4.8278388e-001  4.8034188e-001  4.7838828e-001  4.7741148e-001  4.7594628e-001  4.7252747e-001  4.7179487e-001  4.7106227e-001  4.7448107e-001  4.7838828e-001  4.8205128e-001  4.8278388e-001  4.8253968e-001  4.8253968e-001  4.8278388e-001  4.8278388e-001  4.8107448e-001  4.7692308e-001  4.7326007e-001  4.7106227e-001  4.7179487e-001  4.7374847e-001  4.7472527e-001  4.7765568e-001  4.7887668e-001  4.7545788e-001  4.7081807e-001  4.6715507e-001  4.6300366e-001  4.6007326e-001  4.5787546e-001  4.5714286e-001  4.5689866e-001  4.6080586e-001  4.6446886e-001  4.6788767e-001  4.7252747e-001  4.7887668e-001  4.8498168e-001  4.9010989e-001  4.9304029e-001  4.9279609e-001  4.8791209e-001  4.8278388e-001  4.8107448e-001  4.8205128e-001  4.8205128e-001  4.8205128e-001  4.8351648e-001  4.8400488e-001  4.8278388e-001  4.8351648e-001  4.8766789e-001  4.9352869e-001  5.0427350e-001  5.0891331e-001  5.1037851e-001  5.0818071e-001  5.0573871e-001  5.0158730e-001  4.9352869e-001  4.8766789e-001  4.8547009e-001  4.8473748e-001  4.8620269e-001  4.9157509e-001  5.0207570e-001  5.0573871e-001  5.0378510e-001  4.9426129e-001  4.8986569e-001  4.8913309e-001  4.9230769e-001  4.9572650e-001  4.9597070e-001  4.9597070e-001  5.0207570e-001  5.1013431e-001  5.1184371e-001  5.1159951e-001  5.1086691e-001  5.1086691e-001  5.0940171e-001  5.0744811e-001  5.0500611e-001  5.0305250e-001  5.0378510e-001  5.0598291e-001  5.0525031e-001  5.0085470e-001  4.9279609e-001  4.9352869e-001  5.0012210e-001  5.0134310e-001  5.0061050e-001  5.0134310e-001  5.0207570e-001  5.0012210e-001  4.9352869e-001  4.8986569e-001  4.8644689e-001  4.8351648e-001  4.8205128e-001  4.8034188e-001  4.7960928e-001  4.7912088e-001  4.7814408e-001  4.7667888e-001  4.7887668e-001  4.8205128e-001  4.8547009e-001  4.8840049e-001  4.8937729e-001  4.8620269e-001  4.8205128e-001  4.8107448e-001  4.7960928e-001  4.7692308e-001  4.7594628e-001  4.7741148e-001  4.8107448e-001  4.8205128e-001  4.8205128e-001  4.8424908e-001  4.8693529e-001  4.8913309e-001  4.8986569e-001  4.8840049e-001  4.8473748e-001  4.8473748e-001  4.8571429e-001  4.8791209e-001  4.8864469e-001  4.8986569e-001  4.9059829e-001  4.9157509e-001  4.9157509e-001  4.9206349e-001  4.9157509e-001  4.9230769e-001  4.9304029e-001  4.9450549e-001  5.0012210e-001  4.9572650e-001  4.9523810e-001  5.0012210e-001  5.0012210e-001  4.9426129e-001  4.9133089e-001  4.9010989e-001  4.9084249e-001  4.9157509e-001  4.9352869e-001  4.9304029e-001  4.9377289e-001  4.9499389e-001  4.9597070e-001  4.9426129e-001  4.9279609e-001  4.9206349e-001  4.9352869e-001  4.9523810e-001  5.0012210e-001  5.0085470e-001  5.0061050e-001  4.9597070e-001  5.0012210e-001  5.0085470e-001  5.0012210e-001  5.0012210e-001  5.0061050e-001  4.9597070e-001  4.9426129e-001  4.9230769e-001  4.9157509e-001  4.9352869e-001  4.9499389e-001  4.9523810e-001  4.9157509e-001  4.8864469e-001  4.8620269e-001  4.8791209e-001  4.9059829e-001  4.9230769e-001  4.9304029e-001  4.9499389e-001  5.0061050e-001  5.0207570e-001  5.0061050e-001  4.9523810e-001  4.9426129e-001  4.9426129e-001  4.9426129e-001  4.9157509e-001  4.8791209e-001  4.8571429e-001  4.8498168e-001  4.8351648e-001  4.8424908e-001  4.8620269e-001  4.8766789e-001  4.8644689e-001  4.8547009e-001  4.8473748e-001  4.8498168e-001  4.8791209e-001  4.9157509e-001  4.9279609e-001  4.9084249e-001  4.8766789e-001  4.8571429e-001  4.8424908e-001  4.8620269e-001  4.8864469e-001  4.8840049e-001  4.8473748e-001  4.8253968e-001  4.8107448e-001  4.7985348e-001  4.8034188e-001  4.8205128e-001  4.8351648e-001  4.8253968e-001  4.8205128e-001  4.8278388e-001  4.8351648e-001  4.8547009e-001  4.8986569e-001  4.9230769e-001  4.9377289e-001  4.9279609e-001  4.9304029e-001  4.9133089e-001  4.9084249e-001  4.9157509e-001  4.9230769e-001  4.9133089e-001  4.8913309e-001  4.8644689e-001  4.8351648e-001  4.8034188e-001  4.7814408e-001  4.7667888e-001  4.7619048e-001  4.7667888e-001  4.7887668e-001  4.8034188e-001  4.7960928e-001  4.7765568e-001  4.7692308e-001  4.7692308e-001  4.7521368e-001  4.7448107e-001  4.7472527e-001  4.7692308e-001  4.7912088e-001  4.8034188e-001  4.7985348e-001  4.8107448e-001  4.8351648e-001  4.8717949e-001  4.8986569e-001  4.9133089e-001  4.9279609e-001  4.9426129e-001  4.9572650e-001  5.0085470e-001  5.0012210e-001  4.9523810e-001  4.9377289e-001  4.9450549e-001  5.0012210e-001  4.9572650e-001  5.0012210e-001  4.9670330e-001  5.0085470e-001  5.0231990e-001  5.0305250e-001  5.0231990e-001  4.9597070e-001  4.9230769e-001  4.8864469e-001  4.8766789e-001  4.9084249e-001  4.9352869e-001  5.0085470e-001  5.0378510e-001  5.0427350e-001  5.0354090e-001  5.0378510e-001  5.0378510e-001  5.0500611e-001  5.0744811e-001  5.0866911e-001  5.0964591e-001  5.1159951e-001  5.1037851e-001  5.0866911e-001  5.0818071e-001  5.0744811e-001  5.0866911e-001  5.0940171e-001  5.1013431e-001  5.0891331e-001  5.0744811e-001  5.0647131e-001  5.0598291e-001  5.0525031e-001  5.0573871e-001  5.0525031e-001  5.0427350e-001  5.0207570e-001  4.9645910e-001  4.9352869e-001  4.9206349e-001  4.9059829e-001  4.8986569e-001  4.8913309e-001  4.8840049e-001  4.9010989e-001  4.9279609e-001  4.9377289e-001  4.9377289e-001  4.9304029e-001  4.9230769e-001  4.9230769e-001  4.9230769e-001  4.9377289e-001  4.9304029e-001  4.9352869e-001  4.9304029e-001  4.9352869e-001  4.9304029e-001  4.9377289e-001  4.9377289e-001  4.9426129e-001  4.9499389e-001  4.9597070e-001  4.9499389e-001  4.9499389e-001  4.9377289e-001  4.9157509e-001  4.9084249e-001  4.9059829e-001  4.9084249e-001  4.9157509e-001  4.9133089e-001  4.8986569e-001  4.8717949e-001  4.8571429e-001  4.8571429e-001  4.8473748e-001  4.8400488e-001  4.8107448e-001  4.7912088e-001  4.7741148e-001  4.7594628e-001  4.7667888e-001  4.8034188e-001  4.8498168e-001  4.8913309e-001  4.9010989e-001  4.9059829e-001  4.9010989e-001  4.8913309e-001  4.8840049e-001  4.8791209e-001  4.8351648e-001  4.7887668e-001  4.7692308e-001  4.7765568e-001  4.7985348e-001  4.8253968e-001  4.8644689e-001  4.8913309e-001  4.8913309e-001  4.8644689e-001  4.8473748e-001  4.8205128e-001  4.8205128e-001  4.8327228e-001  4.8351648e-001  4.8278388e-001  4.8327228e-001  4.8278388e-001  4.8400488e-001  4.8571429e-001  4.8693529e-001  4.8693529e-001  4.8571429e-001  4.8498168e-001  4.8693529e-001  4.8986569e-001  4.9059829e-001  4.8864469e-001  4.8791209e-001  4.8693529e-001  4.8644689e-001  4.8717949e-001  4.8766789e-001  4.8913309e-001  4.9059829e-001  4.9230769e-001  4.9304029e-001  4.9352869e-001  4.9157509e-001  4.9084249e-001  4.9133089e-001  4.9352869e-001  4.9572650e-001  5.0061050e-001  5.0012210e-001  4.9523810e-001  4.9352869e-001  4.9084249e-001  4.8840049e-001  4.8766789e-001  4.8791209e-001  4.8766789e-001  4.8620269e-001  4.8571429e-001  4.8766789e-001  4.8791209e-001  4.8913309e-001  4.8840049e-001  4.8766789e-001  4.8693529e-001  4.8791209e-001  4.8693529e-001  4.8400488e-001  4.8205128e-001  4.8253968e-001  4.8400488e-001  4.8693529e-001  4.8766789e-001  4.8766789e-001  4.8791209e-001  4.8864469e-001  4.8986569e-001  4.9084249e-001  4.9084249e-001  4.9133089e-001  4.9206349e-001  4.9206349e-001  4.9230769e-001  4.9230769e-001  4.9084249e-001  4.8986569e-001  4.9059829e-001  4.9059829e-001  4.8864469e-001  4.8717949e-001  4.8791209e-001  4.8913309e-001  4.9279609e-001  4.9426129e-001  4.9377289e-001  4.9279609e-001  4.9450549e-001  4.9572650e-001  5.0061050e-001  5.0158730e-001  5.0231990e-001  5.0134310e-001  5.0012210e-001  5.0012210e-001  5.0061050e-001  5.0207570e-001  5.0305250e-001  5.0378510e-001  5.0525031e-001  5.0671551e-001  5.0573871e-001  5.0378510e-001  5.0134310e-001  5.0061050e-001  5.0158730e-001  5.0451770e-001  5.0598291e-001  5.0598291e-001  5.0573871e-001  5.0818071e-001  5.1037851e-001  5.1159951e-001  5.0866911e-001  5.0573871e-001  5.0378510e-001  5.0451770e-001  5.0573871e-001  5.0573871e-001  5.0525031e-001  5.0525031e-001  5.0500611e-001  5.0305250e-001  5.0134310e-001  5.0134310e-001  5.0134310e-001  5.0134310e-001  5.0305250e-001  5.0451770e-001  5.0647131e-001  5.0720391e-001  5.1013431e-001  5.1086691e-001  5.1086691e-001  5.1086691e-001  5.1013431e-001  5.0744811e-001  5.0744811e-001  5.0793651e-001  5.0671551e-001  5.0525031e-001  5.0427350e-001  5.0427350e-001  5.0451770e-001  5.0427350e-001  5.0451770e-001  5.0598291e-001  5.0427350e-001  5.0231990e-001  5.0231990e-001  5.0231990e-001  5.0280830e-001  5.0525031e-001  5.0744811e-001  5.0866911e-001  5.0866911e-001  5.0866911e-001  5.0866911e-001  5.0964591e-001  5.1037851e-001  5.1233211e-001  5.1330891e-001  5.1452991e-001  5.1452991e-001  5.1257631e-001  5.1013431e-001  5.0866911e-001  5.0818071e-001  5.0744811e-001  5.0720391e-001  5.0720391e-001  5.0744811e-001  5.0647131e-001  5.0720391e-001  5.1086691e-001  5.1306471e-001  5.1184371e-001  5.1037851e-001  5.0818071e-001  5.0671551e-001  5.0573871e-001  5.0573871e-001  5.0378510e-001  5.0231990e-001  5.0280830e-001  5.0231990e-001  4.9523810e-001  4.9279609e-001  4.9059829e-001  4.9059829e-001  4.9084249e-001  4.9059829e-001  4.8937729e-001  4.8937729e-001  4.8840049e-001  4.8791209e-001  4.8937729e-001  4.9084249e-001  4.9279609e-001  4.9426129e-001  4.9597070e-001  5.0061050e-001  5.0427350e-001  5.0671551e-001  5.0744811e-001  5.0573871e-001  5.0305250e-001  5.0012210e-001  5.0012210e-001  4.9523810e-001  4.9499389e-001  4.9572650e-001  5.0085470e-001  5.0158730e-001  5.0231990e-001  5.0305250e-001  5.0451770e-001  5.0427350e-001  5.0280830e-001  5.0085470e-001  5.0158730e-001  5.0354090e-001  5.0500611e-001  5.0598291e-001  5.0720391e-001  5.0671551e-001  5.0573871e-001  5.0598291e-001  5.0598291e-001  5.0500611e-001  5.0354090e-001  5.0427350e-001  5.0305250e-001  4.9572650e-001  4.8986569e-001  4.8571429e-001  4.8400488e-001  4.8547009e-001  4.8766789e-001  4.9059829e-001  4.9157509e-001  4.9279609e-001  4.9426129e-001  4.9304029e-001  4.9133089e-001  4.9084249e-001  4.9010989e-001  4.8913309e-001  4.8766789e-001  4.8620269e-001  4.8473748e-001  4.8400488e-001  4.8498168e-001  4.8473748e-001  4.8205128e-001  4.8034188e-001  4.8058608e-001  4.7960928e-001  4.7912088e-001  4.7667888e-001  4.7374847e-001  4.7032967e-001  4.6935287e-001  4.6959707e-001  4.7155067e-001  4.7521368e-001  4.7838828e-001  4.7887668e-001  4.7814408e-001  4.7985348e-001  4.8327228e-001  4.8620269e-001  4.8644689e-001  4.8498168e-001  4.8424908e-001  4.8547009e-001  4.8766789e-001  4.8937729e-001  4.9059829e-001  4.9352869e-001  4.9426129e-001  4.9352869e-001  4.9059829e-001  4.8766789e-001  4.8498168e-001  4.8278388e-001  4.8253968e-001  4.8278388e-001  4.8180708e-001  4.7912088e-001  4.7545788e-001  4.7155067e-001  4.6739927e-001  4.6422466e-001  4.5934066e-001  4.5347985e-001  4.4737485e-001  4.4078144e-001  4.3565324e-001  4.3076923e-001  4.2637363e-001  4.2246642e-001  4.2124542e-001  4.2246642e-001  4.2637363e-001  4.3003663e-001  4.3272283e-001  4.3369963e-001  4.3589744e-001  4.3882784e-001  4.4175824e-001  4.4468864e-001  4.4957265e-001  4.5250305e-001  4.5421245e-001  4.5616606e-001  4.5787546e-001  4.6227106e-001  4.6959707e-001  4.7594628e-001  4.7960928e-001  4.7887668e-001  4.7594628e-001  4.7472527e-001  4.7667888e-001  4.7887668e-001  4.8180708e-001  4.8547009e-001  4.8791209e-001  4.9084249e-001  4.9084249e-001  4.9279609e-001  4.9426129e-001  5.0012210e-001  5.0231990e-001  5.0525031e-001  5.0647131e-001  5.0891331e-001  5.1086691e-001  5.1257631e-001  5.1526252e-001  5.1892552e-001  5.2112332e-001  5.2332112e-001  5.2405372e-001  5.2356532e-001  5.1990232e-001  5.1404151e-001  5.0573871e-001  4.9426129e-001  4.8424908e-001  4.6886447e-001  4.4737485e-001  4.2759463e-001  4.1367521e-001  4.0512821e-001  4.0122100e-001  4.0048840e-001  4.0195360e-001  4.0341880e-001  4.0586081e-001  4.0659341e-001  4.1172161e-001  4.2173382e-001  4.3443223e-001  4.4737485e-001  4.5860806e-001  4.6813187e-001  4.8058608e-001  4.9426129e-001  5.1306471e-001  5.2405372e-001  5.3015873e-001  5.3357753e-001  5.3528694e-001  5.3601954e-001  5.3748474e-001  5.3894994e-001  5.3821734e-001  5.3748474e-001  5.3431013e-001  5.3284493e-001  5.2991453e-001  5.2942613e-001  5.3211233e-001  5.3455433e-001  5.3675214e-001  5.3675214e-001  5.3528694e-001  5.3504274e-001  5.3528694e-001  5.3675214e-001  5.3675214e-001  5.3504274e-001  5.3308913e-001  5.3504274e-001  5.3968254e-001  5.4163614e-001  5.4334554e-001  5.4407814e-001  5.4383394e-001  5.4310134e-001  5.4481074e-001  5.4774115e-001  5.4822955e-001  5.4554335e-001  5.4407814e-001  5.4163614e-001  5.4090354e-001  5.4188034e-001  5.4310134e-001  5.4334554e-001  5.4383394e-001  5.4334554e-001  5.4407814e-001  5.4554335e-001  5.4920635e-001  5.5213675e-001  5.5262515e-001  5.5140415e-001  5.5115995e-001  5.4993895e-001  5.4847375e-001  5.4627595e-001  5.4529915e-001  5.4554335e-001  5.4627595e-001  5.4529915e-001  5.4261294e-001  5.4114774e-001  5.4090354e-001  5.4236874e-001  5.4310134e-001  5.4261294e-001  5.4090354e-001  5.3797314e-001  5.3601954e-001  5.3675214e-001  5.3797314e-001  5.3528694e-001  5.3015873e-001  5.2478632e-001  5.2136752e-001  5.2136752e-001  5.2258852e-001  5.2356532e-001  5.2478632e-001  5.2332112e-001  5.2210012e-001  5.2210012e-001  5.2332112e-001  5.2405372e-001  5.2356532e-001  5.2258852e-001  5.2112332e-001  5.2112332e-001  5.2332112e-001  5.2356532e-001  5.2283272e-001  5.1990232e-001  5.1892552e-001  5.2063492e-001  5.2332112e-001  5.2405372e-001  5.2429792e-001  5.2258852e-001  5.2063492e-001  5.2039072e-001  5.2112332e-001  5.2136752e-001  5.2185592e-001  5.2136752e-001  5.1746032e-001  5.1379731e-001  5.1233211e-001  5.1159951e-001  5.1086691e-001  5.1159951e-001  5.1233211e-001  5.1306471e-001  5.1257631e-001  5.1233211e-001  5.1184371e-001  5.1330891e-001  5.1452991e-001  5.1623932e-001  5.1965812e-001  5.2210012e-001  5.1965812e-001  5.1550672e-001  5.1037851e-001  5.0720391e-001  5.0744811e-001  5.0940171e-001  5.1159951e-001  5.1306471e-001  5.1330891e-001  5.1306471e-001  5.1257631e-001  5.1257631e-001  5.1257631e-001  5.1111111e-001  5.1037851e-001  5.1013431e-001  5.1086691e-001  5.1159951e-001  5.1184371e-001  5.0964591e-001  5.0866911e-001  5.0891331e-001  5.0940171e-001  5.0964591e-001  5.0964591e-001  5.0964591e-001  5.1086691e-001  5.1159951e-001  5.1159951e-001  5.1086691e-001  5.0866911e-001  5.0158730e-001  4.8791209e-001  4.7301587e-001  4.6642247e-001  4.7741148e-001  5.0305250e-001  5.3455433e-001  5.6947497e-001  6.0683761e-001  6.4566545e-001  6.7374847e-001  6.9108669e-001  6.9279609e-001  6.6178266e-001  6.0781441e-001  5.4847375e-001  4.9157509e-001  4.5347985e-001  4.3003663e-001  4.0512821e-001  3.7509158e-001  3.4847375e-001  3.4285714e-001  3.5506716e-001  3.7509158e-001  3.9755800e-001  4.1904762e-001  4.4102564e-001  4.6275946e-001  4.8058608e-001  4.9645910e-001  5.1379731e-001  5.2332112e-001  5.3308913e-001  5.4188034e-001  5.4920635e-001  5.5335775e-001  5.5653236e-001  5.5848596e-001  5.6166056e-001  5.6312576e-001  5.6312576e-001  5.6312576e-001  5.6459096e-001  5.6605617e-001  5.6532357e-001  5.6361416e-001  5.6239316e-001  5.6312576e-001  5.6581197e-001  5.6727717e-001  5.6825397e-001  5.6825397e-001  5.6898657e-001  5.7313797e-001  5.7826618e-001  5.8437118e-001  5.8949939e-001  5.9389499e-001  5.9829060e-001  6.0390720e-001  6.0757021e-001  6.1416361e-001  6.2246642e-001  6.3247863e-001  6.4444444e-001  6.5518926e-001  6.6129426e-001  6.6984127e-001  6.7863248e-001  6.8595849e-001  6.9255189e-001  7.0061050e-001  7.0647131e-001  7.1111111e-001  7.1697192e-001  7.2210012e-001  7.2356532e-001  7.2356532e-001  7.2405372e-001  7.2405372e-001  7.2112332e-001  7.1257631e-001  7.0280830e-001  6.9328449e-001  6.8962149e-001  6.8742369e-001  6.8229548e-001  6.7008547e-001  6.5616606e-001  6.4004884e-001  6.2686203e-001  6.1782662e-001  6.0927961e-001  5.9291819e-001  5.7094017e-001  5.4920635e-001  5.2796093e-001  5.1111111e-001  4.9645910e-001  4.8766789e-001  4.7912088e-001  4.7106227e-001  4.6373626e-001  4.5787546e-001  4.5128205e-001  4.4688645e-001  4.4322344e-001  4.4078144e-001  4.4078144e-001  4.4224664e-001  4.4297924e-001  4.4249084e-001  4.3785104e-001  4.3443223e-001  4.3492063e-001  4.3785104e-001  4.3956044e-001  4.3882784e-001  4.3565324e-001  4.3296703e-001  4.3125763e-001  4.2979243e-001  4.2979243e-001  4.2857143e-001  4.2710623e-001  4.2783883e-001  4.2759463e-001  4.2612943e-001  4.2490842e-001  4.2393162e-001  4.2393162e-001  4.2393162e-001  4.2393162e-001  4.2271062e-001  4.2344322e-001  4.2417582e-001  4.2637363e-001  4.2783883e-001  4.2783883e-001  4.2710623e-001  4.2783883e-001  4.2783883e-001  4.2783883e-001  4.2857143e-001  4.2905983e-001  4.2857143e-001  4.3199023e-001  4.3418803e-001  4.3369963e-001  4.3272283e-001  4.3345543e-001  4.3443223e-001  4.3492063e-001  4.3443223e-001  4.3516484e-001  4.3565324e-001  4.3589744e-001  4.3638584e-001  4.3516484e-001  4.3565324e-001  4.3711844e-001  4.3882784e-001  4.4078144e-001  4.4322344e-001  4.4444444e-001  4.4664225e-001  4.4688645e-001  4.4517705e-001  4.4395604e-001  4.4517705e-001  4.4737485e-001  4.4957265e-001  4.4957265e-001  4.5030525e-001  4.5030525e-001  4.5177045e-001  4.5396825e-001  4.5323565e-001  4.5396825e-001  4.5616606e-001  4.5860806e-001  4.5982906e-001  4.5934066e-001  4.5689866e-001  4.5470085e-001  4.5323565e-001  4.5567766e-001  4.5787546e-001  4.5909646e-001  4.5860806e-001  4.5934066e-001  4.6080586e-001  4.6227106e-001  4.6275946e-001  4.6422466e-001  4.6349206e-001  4.6300366e-001  4.6300366e-001  4.6153846e-001  4.5860806e-001  4.5860806e-001  4.5982906e-001  4.6007326e-001  4.6227106e-001  4.6593407e-001  4.6788767e-001  4.6813187e-001  4.6788767e-001  4.6520147e-001  4.6349206e-001  4.6349206e-001  4.6373626e-001  4.6446886e-001  4.6715507e-001  4.6886447e-001  4.6935287e-001  4.6813187e-001  4.6568987e-001  4.6422466e-001  4.6520147e-001  4.6642247e-001  4.6862027e-001  4.6959707e-001  4.7008547e-001  4.7106227e-001  4.7179487e-001  4.7081807e-001  4.7032967e-001  4.7081807e-001  4.7032967e-001  4.7106227e-001  4.7081807e-001  4.7228327e-001  4.7301587e-001  4.7252747e-001  4.7301587e-001  4.7448107e-001  4.7619048e-001  4.7692308e-001  4.7814408e-001  4.7838828e-001  4.7814408e-001  4.7887668e-001  4.7765568e-001  4.7545788e-001  4.7374847e-001  4.7301587e-001  4.7301587e-001  4.7326007e-001  4.7374847e-001  4.7521368e-001  4.7667888e-001  4.7692308e-001  4.7765568e-001  4.7887668e-001  4.7912088e-001  4.7912088e-001  4.8180708e-001  4.8351648e-001  4.8498168e-001  4.8547009e-001  4.8547009e-001  4.8547009e-001  4.8644689e-001  4.8717949e-001  4.8693529e-001  4.8473748e-001  4.8400488e-001  4.8400488e-001  4.8253968e-001  4.8180708e-001  4.8327228e-001  4.8547009e-001  4.8791209e-001  4.8791209e-001  4.8693529e-001  4.8717949e-001  4.8986569e-001  4.9450549e-001  5.0134310e-001  5.0134310e-001  4.9499389e-001  4.9059829e-001  4.8571429e-001  4.8547009e-001  4.8547009e-001  4.8620269e-001  4.8644689e-001  4.8864469e-001  4.8864469e-001  4.8766789e-001  4.8644689e-001  4.8693529e-001  4.8644689e-001  4.8693529e-001  4.8253968e-001  4.7326007e-001  4.6080586e-001  4.5323565e-001  4.4908425e-001  4.5323565e-001  4.5641026e-001  4.5982906e-001  4.6227106e-001  4.6422466e-001  4.6593407e-001  4.7081807e-001  4.8180708e-001  4.9426129e-001  5.0647131e-001  5.0598291e-001  5.0012210e-001  4.9059829e-001  4.9010989e-001  4.9499389e-001  5.0525031e-001  5.0720391e-001  5.0598291e-001  5.0305250e-001  5.0012210e-001  4.9304029e-001  4.9010989e-001  4.8864469e-001  4.8766789e-001  4.8571429e-001  4.8644689e-001  4.8840049e-001  4.8986569e-001  4.9230769e-001  4.9377289e-001  4.9523810e-001  5.0012210e-001  5.0012210e-001  4.9572650e-001  4.9426129e-001  4.9279609e-001  4.9279609e-001  4.9279609e-001  4.9352869e-001  4.9206349e-001  4.9084249e-001  4.8937729e-001  4.8913309e-001  4.8937729e-001  4.8913309e-001  4.8986569e-001  4.9352869e-001  4.9499389e-001  4.9377289e-001  4.9133089e-001  4.8937729e-001  4.8937729e-001  4.9059829e-001  4.9133089e-001  4.9084249e-001  4.8913309e-001  4.8717949e-001  4.8840049e-001  4.8913309e-001  4.9084249e-001  4.9352869e-001  4.9450549e-001  4.9523810e-001  4.9645910e-001  4.9499389e-001  4.9499389e-001  4.9499389e-001  4.9523810e-001  4.9499389e-001  4.9523810e-001  4.9572650e-001  4.9572650e-001  4.9499389e-001  4.9523810e-001  4.9572650e-001  5.0012210e-001  5.0134310e-001  5.0061050e-001  5.0012210e-001  5.0012210e-001  5.0012210e-001  5.0012210e-001  5.0231990e-001  5.0378510e-001  5.0354090e-001  5.0061050e-001  4.9523810e-001  4.9304029e-001  4.9304029e-001  4.9377289e-001  4.9279609e-001  4.9230769e-001  4.9279609e-001  4.9426129e-001  4.9523810e-001  4.9572650e-001  4.9523810e-001  4.9499389e-001  4.9352869e-001  4.9377289e-001  4.9426129e-001  4.9523810e-001  4.9597070e-001  5.0012210e-001  4.9645910e-001  4.9572650e-001  4.9523810e-001  4.9645910e-001  4.9450549e-001  4.9499389e-001  4.9597070e-001  5.0012210e-001  5.0134310e-001  5.0280830e-001  5.0305250e-001  5.0280830e-001  5.0354090e-001  5.0427350e-001  5.0378510e-001  5.0085470e-001  4.9572650e-001  4.9645910e-001  5.0012210e-001  5.0134310e-001  5.0231990e-001  5.0354090e-001  5.0354090e-001  5.0207570e-001  5.0085470e-001  5.0012210e-001  4.9523810e-001  4.9499389e-001  4.9645910e-001  4.9572650e-001  4.9645910e-001  4.9499389e-001  4.9352869e-001  4.9133089e-001  4.9133089e-001  4.9230769e-001  4.9206349e-001  4.9206349e-001  4.9279609e-001  4.9426129e-001  5.0085470e-001  5.0305250e-001  5.0207570e-001  4.9670330e-001  4.9426129e-001  4.9304029e-001  4.9499389e-001  4.9645910e-001  4.9597070e-001  5.0207570e-001  5.0451770e-001  5.0500611e-001  5.0354090e-001  5.0158730e-001  5.0085470e-001  5.0305250e-001  5.0500611e-001  5.0598291e-001  5.0427350e-001  5.0207570e-001  5.0158730e-001  5.0158730e-001  5.0427350e-001  5.0671551e-001  5.0866911e-001  5.1037851e-001  5.1233211e-001  5.1037851e-001  5.0598291e-001  5.0134310e-001  4.9523810e-001  5.0134310e-001  5.0647131e-001  5.1037851e-001  5.1306471e-001  5.1477411e-001  5.1697192e-001  5.1746032e-001  5.2063492e-001  5.2551893e-001  5.2942613e-001  5.3211233e-001  5.3162393e-001  5.2918193e-001  5.2576313e-001  5.2332112e-001  5.2112332e-001  5.2063492e-001  5.2039072e-001  5.2039072e-001  5.1965812e-001  5.1746032e-001  5.1623932e-001  5.1452991e-001  5.1111111e-001  5.0720391e-001  5.0305250e-001  5.0134310e-001  5.0012210e-001  5.0061050e-001  5.0207570e-001  5.0231990e-001  4.9572650e-001  4.9523810e-001  4.9426129e-001  4.9426129e-001  4.9499389e-001  5.0061050e-001  5.0158730e-001  5.0451770e-001  5.0573871e-001  5.0573871e-001  5.0231990e-001  4.9523810e-001  4.9206349e-001  4.9010989e-001  4.8791209e-001  4.8840049e-001  4.9133089e-001  4.9279609e-001  4.9157509e-001  4.9010989e-001  4.8840049e-001  4.8644689e-001  4.8717949e-001  4.8986569e-001  4.9279609e-001  4.9279609e-001  4.9377289e-001  4.9523810e-001  4.9523810e-001  4.9450549e-001  4.9352869e-001  4.9157509e-001  4.9059829e-001  4.8913309e-001  4.8840049e-001  4.8864469e-001  4.8937729e-001  4.9059829e-001  4.8986569e-001  4.9059829e-001  4.9230769e-001  4.9377289e-001  4.9377289e-001  4.9352869e-001  4.9352869e-001  4.9426129e-001  4.9377289e-001  4.9377289e-001  4.9304029e-001  4.9206349e-001  4.9157509e-001  4.9279609e-001  4.9157509e-001  4.9133089e-001  4.9084249e-001  4.9059829e-001  4.9059829e-001  4.9206349e-001  4.9304029e-001  4.9377289e-001  4.9572650e-001  5.0012210e-001  4.9572650e-001  4.9377289e-001  4.9230769e-001  4.9133089e-001  4.9133089e-001  4.9377289e-001  4.9450549e-001  4.9572650e-001  5.0012210e-001  4.9597070e-001  5.0061050e-001  5.0158730e-001  5.0085470e-001  5.0012210e-001  4.9597070e-001  4.9597070e-001  5.0012210e-001  4.9645910e-001  4.9523810e-001  4.9377289e-001  4.9230769e-001  4.9157509e-001  4.9230769e-001  4.9304029e-001  4.9499389e-001  5.0012210e-001  5.0134310e-001  5.0061050e-001  4.9572650e-001  4.9304029e-001  4.9084249e-001  4.9059829e-001  4.9279609e-001  4.9352869e-001  4.9279609e-001  4.9133089e-001  4.8937729e-001  4.9059829e-001  4.9133089e-001  4.9279609e-001  4.9304029e-001  4.9426129e-001  4.9377289e-001  4.9377289e-001  4.9377289e-001  4.9499389e-001  4.9597070e-001  4.9572650e-001  4.9523810e-001  4.9499389e-001  4.9523810e-001  4.9523810e-001  4.9426129e-001  4.9426129e-001  4.9499389e-001  5.0134310e-001  5.0378510e-001  5.0451770e-001  5.0305250e-001  5.0012210e-001  4.9426129e-001  4.9352869e-001  4.9426129e-001  4.9426129e-001  4.9572650e-001  5.0012210e-001  5.0061050e-001  5.0085470e-001  5.0012210e-001  4.9499389e-001  4.9377289e-001  4.9352869e-001  4.9426129e-001  4.9597070e-001  5.0158730e-001  5.0061050e-001  4.9523810e-001  4.9377289e-001  4.9426129e-001  4.9523810e-001  4.9426129e-001  4.9304029e-001  4.9352869e-001  4.9450549e-001  4.9572650e-001  5.0061050e-001  5.0061050e-001  5.0085470e-001  5.0134310e-001  5.0134310e-001  5.0061050e-001  5.0061050e-001  5.0012210e-001  5.0085470e-001  5.0207570e-001  5.0354090e-001  5.0158730e-001  4.9523810e-001  4.9304029e-001  4.9157509e-001  4.9230769e-001  4.9377289e-001  4.9450549e-001  4.9426129e-001  4.9377289e-001  4.9450549e-001  4.9572650e-001  5.0134310e-001  5.0158730e-001  5.0061050e-001  5.0061050e-001  4.9572650e-001  4.9597070e-001  5.0012210e-001  5.0134310e-001  5.0158730e-001  5.0207570e-001  5.0134310e-001  5.0134310e-001  5.0085470e-001  5.0207570e-001  5.0378510e-001  5.0451770e-001  5.0231990e-001  5.0134310e-001  5.0061050e-001  5.0012210e-001  5.0085470e-001  5.0231990e-001  5.0280830e-001  5.0231990e-001  5.0280830e-001  5.0305250e-001  5.0378510e-001  5.0500611e-001  5.0573871e-001  5.0500611e-001  5.0305250e-001  5.0134310e-001  5.0085470e-001  5.0061050e-001  5.0085470e-001  5.0134310e-001  5.0158730e-001  5.0280830e-001  5.0354090e-001  5.0231990e-001  5.0085470e-001  5.0207570e-001  5.0573871e-001  5.0744811e-001  5.0744811e-001  5.0525031e-001  5.0427350e-001  5.0305250e-001  5.0207570e-001  5.0085470e-001  5.0207570e-001  5.0354090e-001  5.0378510e-001  5.0451770e-001  5.0354090e-001  5.0305250e-001  5.0451770e-001  5.0647131e-001  5.0818071e-001  5.0866911e-001  5.0525031e-001  5.0134310e-001  4.9572650e-001  4.9523810e-001  4.9572650e-001  5.0061050e-001  5.0354090e-001  5.0671551e-001  5.0598291e-001  5.0231990e-001  4.9450549e-001  4.9279609e-001  4.9304029e-001  4.9426129e-001  4.9572650e-001  5.0061050e-001  5.0158730e-001  5.0231990e-001  5.0280830e-001  5.0158730e-001  5.0231990e-001  5.0305250e-001  5.0451770e-001  5.0280830e-001  5.0158730e-001  5.0061050e-001  5.0134310e-001  5.0280830e-001  5.0378510e-001  5.0427350e-001  5.0573871e-001  5.0598291e-001  5.0573871e-001  5.0525031e-001  5.0378510e-001  5.0134310e-001  5.0085470e-001  5.0085470e-001  5.0012210e-001  4.9523810e-001  5.0061050e-001  5.0378510e-001  5.0378510e-001  5.0500611e-001  5.0378510e-001  5.0427350e-001  5.0573871e-001  5.0598291e-001  5.0451770e-001  5.0231990e-001  5.0231990e-001  5.0866911e-001  5.0940171e-001  5.0866911e-001  5.0573871e-001  5.0305250e-001  5.0134310e-001  5.0207570e-001  5.0085470e-001  4.9597070e-001  4.9572650e-001  5.0012210e-001  5.0231990e-001  5.0305250e-001  5.0378510e-001  5.0427350e-001  5.0378510e-001  5.0231990e-001  5.0231990e-001  5.0280830e-001  5.0500611e-001  5.0451770e-001  5.0354090e-001  5.0231990e-001  5.0280830e-001  5.0231990e-001  5.0305250e-001  5.0280830e-001  5.0451770e-001  5.0671551e-001  5.0818071e-001  5.1013431e-001  5.0964591e-001  5.0866911e-001  5.0720391e-001  5.0525031e-001  5.0451770e-001  5.0354090e-001  5.0231990e-001  5.0207570e-001  5.0427350e-001  5.0525031e-001  5.0378510e-001  5.0354090e-001  5.0280830e-001  5.0280830e-001  5.0280830e-001  5.0207570e-001  5.0012210e-001  4.9572650e-001  4.9499389e-001  4.9597070e-001  5.0085470e-001  5.0158730e-001  5.0158730e-001  5.0231990e-001  5.0207570e-001  5.0427350e-001  5.0598291e-001  5.0720391e-001  5.0647131e-001  5.0647131e-001  5.0647131e-001  5.0647131e-001  5.0744811e-001  5.0891331e-001  5.0818071e-001  5.0598291e-001  5.0720391e-001  5.0964591e-001  5.1159951e-001  5.1086691e-001  5.0818071e-001  5.0598291e-001  5.0573871e-001  5.0671551e-001  5.0793651e-001  5.0818071e-001  5.0793651e-001  5.0720391e-001  5.0525031e-001  5.0354090e-001  5.0427350e-001  5.0525031e-001  5.0525031e-001  5.0500611e-001  5.0500611e-001  5.0525031e-001  5.0573871e-001  5.0500611e-001  5.0427350e-001  5.0451770e-001  5.0573871e-001  5.0744811e-001  5.0671551e-001  5.0573871e-001  5.0500611e-001  5.0525031e-001  5.0525031e-001  5.0573871e-001  5.0573871e-001  5.0647131e-001  5.0647131e-001  5.0573871e-001  5.0305250e-001  5.0085470e-001  5.0012210e-001  5.0158730e-001  5.0427350e-001  5.0598291e-001  5.0525031e-001  5.0573871e-001  5.0598291e-001  5.0598291e-001  5.0525031e-001  5.0647131e-001  5.0720391e-001  5.0573871e-001  5.0573871e-001  5.0647131e-001  5.0720391e-001  5.0818071e-001  5.0818071e-001  5.0793651e-001  5.0720391e-001  5.0720391e-001  5.0818071e-001  5.0891331e-001  5.0891331e-001  5.0647131e-001  5.0451770e-001  5.0378510e-001  5.0598291e-001  5.0866911e-001  5.0940171e-001  5.0647131e-001  5.0451770e-001  5.0305250e-001  5.0305250e-001  5.0378510e-001  5.0451770e-001  5.0573871e-001  5.0573871e-001  5.0598291e-001  5.0500611e-001  5.0451770e-001  5.0451770e-001  5.0500611e-001  5.0427350e-001  5.0427350e-001  5.0305250e-001  5.0305250e-001  5.0354090e-001  5.0378510e-001  5.0500611e-001  5.0671551e-001  5.0744811e-001  5.0793651e-001  5.0671551e-001  5.0573871e-001  5.0598291e-001  5.0720391e-001  5.0818071e-001  5.0647131e-001  5.0451770e-001  5.0451770e-001  5.0573871e-001  5.0500611e-001  5.0525031e-001  5.0598291e-001  5.0744811e-001  5.0818071e-001  5.0866911e-001  5.0818071e-001  5.0866911e-001  5.0818071e-001  5.0891331e-001  5.0866911e-001  5.0818071e-001  5.0744811e-001  5.0598291e-001  5.0500611e-001  5.0500611e-001  5.0573871e-001  5.0573871e-001  5.0573871e-001  5.0598291e-001  5.0573871e-001  5.0451770e-001  5.0451770e-001  5.0451770e-001  5.0500611e-001  5.0573871e-001  5.0720391e-001  5.0647131e-001  5.0500611e-001  5.0427350e-001  5.0500611e-001  5.0647131e-001  5.0866911e-001  5.0891331e-001  5.0866911e-001  5.0671551e-001  5.0573871e-001  5.0525031e-001  5.0647131e-001  5.0744811e-001  5.0866911e-001  5.1086691e-001  5.1013431e-001  5.0891331e-001  5.0891331e-001  5.0866911e-001  5.0744811e-001  5.0744811e-001  5.0866911e-001  5.0818071e-001  5.0744811e-001  5.0793651e-001  5.0891331e-001  5.1037851e-001  5.0964591e-001  5.0818071e-001  5.0573871e-001  5.0500611e-001  5.0573871e-001  5.0744811e-001  5.0818071e-001  5.0818071e-001  5.0598291e-001  5.0378510e-001  5.0231990e-001  5.0280830e-001  5.0451770e-001  5.0598291e-001  5.0573871e-001  5.0573871e-001  5.0573871e-001  5.0451770e-001  5.0378510e-001  5.0378510e-001  5.0427350e-001  5.0451770e-001  5.0525031e-001  5.0573871e-001  5.0671551e-001  5.0793651e-001  5.1013431e-001  5.0940171e-001  5.0964591e-001  5.1013431e-001  5.0866911e-001  5.0573871e-001  5.0573871e-001  5.0598291e-001  5.0720391e-001  5.0818071e-001  5.1037851e-001  5.1159951e-001  5.1159951e-001  5.1233211e-001  5.1233211e-001  5.1184371e-001  5.1111111e-001  5.1159951e-001  5.1233211e-001  5.1404151e-001  5.1623932e-001  5.1697192e-001  5.1306471e-001  5.0818071e-001  5.0573871e-001  5.0671551e-001  5.0940171e-001  5.1159951e-001  5.1086691e-001  5.0940171e-001  5.0818071e-001  5.0866911e-001  5.0818071e-001  5.0720391e-001  5.0720391e-001  5.0866911e-001  5.0866911e-001  5.0671551e-001  5.0573871e-001  5.0451770e-001  5.0427350e-001  5.0354090e-001  5.0354090e-001  5.0354090e-001  5.0500611e-001  5.0525031e-001  5.0573871e-001  5.0305250e-001  5.0012210e-001  4.9450549e-001  4.9426129e-001  4.9523810e-001  5.0061050e-001  5.0061050e-001  5.0134310e-001  5.0061050e-001  5.0207570e-001  5.0305250e-001  5.0451770e-001  5.0500611e-001  5.0354090e-001  5.0158730e-001  5.0085470e-001  5.0134310e-001  5.0207570e-001  5.0354090e-001  5.0427350e-001  5.0427350e-001  5.0525031e-001  5.0573871e-001  5.0671551e-001  5.0744811e-001  5.0720391e-001  5.0964591e-001  5.1159951e-001  5.1184371e-001  5.1037851e-001  5.0793651e-001  5.0500611e-001  5.0378510e-001  5.0451770e-001  5.0744811e-001  5.0866911e-001  5.0671551e-001  5.0525031e-001  5.0525031e-001  5.0573871e-001  5.0573871e-001  5.0671551e-001  5.0818071e-001  5.0891331e-001  5.0793651e-001  5.0793651e-001  5.0818071e-001  5.0744811e-001  5.0451770e-001  5.0451770e-001  5.0525031e-001  5.0818071e-001  5.1013431e-001  5.1233211e-001  5.1159951e-001  5.1233211e-001  5.1330891e-001  5.1526252e-001  5.1477411e-001  5.1452991e-001  5.1477411e-001  5.1452991e-001  5.1184371e-001  5.1111111e-001  5.1037851e-001  5.1013431e-001  5.0964591e-001  5.0818071e-001  5.0598291e-001  5.0354090e-001  5.0427350e-001  5.0525031e-001  5.0573871e-001  5.0305250e-001  5.0085470e-001  4.9426129e-001  4.9304029e-001  4.9377289e-001  4.9499389e-001  4.9426129e-001  4.9206349e-001  4.9010989e-001  4.9084249e-001  4.9133089e-001  4.9304029e-001  4.9304029e-001  4.9133089e-001  4.9059829e-001  4.9279609e-001  4.9499389e-001  4.9523810e-001  4.9597070e-001  5.0012210e-001  4.9645910e-001  4.9523810e-001  4.9450549e-001  4.9499389e-001  5.0012210e-001  5.0280830e-001  5.0500611e-001  5.0647131e-001  5.0720391e-001  5.0744811e-001  5.0818071e-001  5.0891331e-001  5.1184371e-001  5.1379731e-001  5.1746032e-001  5.2283272e-001  5.2869353e-001  5.3357753e-001  5.3601954e-001  5.3748474e-001  5.4090354e-001  5.4236874e-001  5.4090354e-001  5.3675214e-001  5.3284493e-001  5.3015873e-001  5.2918193e-001  5.2869353e-001  5.2771673e-001  5.2698413e-001  5.2551893e-001  5.2405372e-001  5.2283272e-001  5.2063492e-001  5.1623932e-001  5.1404151e-001  5.1184371e-001  5.1086691e-001  5.1159951e-001  5.1330891e-001  5.1306471e-001  5.1159951e-001  5.1013431e-001  5.0818071e-001  5.0598291e-001  5.0427350e-001  5.0207570e-001  4.9597070e-001  4.9377289e-001  4.9377289e-001  4.9377289e-001  4.9352869e-001  4.9426129e-001  4.9450549e-001  4.9597070e-001  5.0158730e-001  5.0354090e-001  5.0207570e-001  5.0134310e-001  5.0378510e-001  5.0647131e-001  5.0598291e-001  5.0280830e-001  4.9523810e-001  4.9279609e-001  4.9304029e-001  5.0061050e-001  5.0158730e-001  5.0012210e-001  4.9523810e-001  5.0012210e-001  5.0354090e-001  5.0525031e-001  5.0598291e-001  5.0720391e-001  5.0671551e-001  5.0598291e-001  5.0647131e-001  5.0573871e-001  5.0525031e-001  5.0525031e-001  5.0573871e-001  5.0573871e-001  5.0573871e-001  5.0354090e-001  5.0305250e-001  5.0500611e-001  5.0964591e-001  5.1233211e-001  5.1233211e-001  5.1159951e-001  5.1184371e-001  5.1159951e-001  5.0940171e-001  5.0720391e-001  5.0744811e-001  5.1086691e-001  5.1452991e-001  5.1746032e-001  5.1770452e-001  5.1697192e-001  5.1599512e-001  5.1477411e-001  5.1330891e-001  5.1306471e-001  5.1184371e-001  5.1330891e-001  5.1404151e-001  5.1330891e-001  5.1233211e-001  5.1159951e-001  5.1111111e-001  5.1159951e-001  5.1159951e-001  5.1257631e-001  5.1257631e-001  5.1257631e-001  5.1184371e-001  5.1330891e-001  5.1477411e-001  5.1526252e-001  5.1526252e-001  5.1404151e-001  5.1037851e-001  5.0720391e-001  5.0354090e-001  5.0012210e-001  4.9426129e-001  4.9352869e-001  4.9206349e-001  4.8766789e-001  4.8253968e-001  4.7667888e-001  4.7008547e-001  4.6495726e-001  4.6446886e-001  4.6275946e-001  4.5934066e-001  4.5860806e-001  4.5787546e-001  4.5763126e-001  4.6129426e-001  4.6446886e-001  4.6495726e-001  4.7179487e-001  4.7887668e-001  4.8058608e-001  4.7521368e-001  4.6568987e-001  4.5860806e-001  4.5763126e-001  4.6080586e-001  4.7106227e-001  4.8791209e-001  5.0891331e-001  5.2112332e-001  5.2576313e-001  5.2625153e-001  5.2722833e-001  5.2698413e-001  5.2625153e-001  5.2356532e-001  5.2332112e-001  5.2429792e-001  5.2722833e-001  5.2844933e-001  5.2796093e-001  5.2942613e-001  5.3504274e-001  5.4163614e-001  5.4969475e-001  5.5726496e-001  5.6214896e-001  5.6141636e-001  5.5799756e-001  5.5140415e-001  5.4188034e-001  5.3431013e-001  5.3015873e-001  5.2869353e-001  5.2918193e-001  5.3162393e-001  5.3089133e-001  5.2918193e-001  5.2796093e-001  5.2698413e-001  5.2576313e-001  5.2551893e-001  5.2551893e-001  5.2576313e-001  5.2478632e-001  5.2405372e-001  5.2258852e-001  5.2112332e-001  5.1965812e-001  5.1916972e-001  5.1965812e-001  5.1990232e-001  5.2063492e-001  5.1990232e-001  5.1770452e-001  5.1477411e-001  5.1379731e-001  5.1379731e-001  5.1330891e-001  5.1159951e-001  5.0866911e-001  5.0525031e-001  5.0451770e-001  5.0451770e-001  5.0818071e-001  5.1037851e-001  5.1184371e-001  5.1037851e-001  5.0866911e-001  5.0671551e-001  5.0671551e-001  5.0818071e-001  5.0891331e-001  5.0866911e-001  5.1086691e-001  5.1159951e-001  5.1086691e-001  5.0940171e-001  5.0744811e-001  5.0598291e-001  5.0573871e-001  5.0720391e-001  5.0793651e-001  5.0866911e-001  5.0818071e-001  5.0866911e-001  5.0818071e-001  5.0720391e-001  5.0573871e-001  5.0573871e-001  5.0647131e-001  5.0818071e-001  5.0793651e-001  5.0720391e-001  5.0573871e-001  5.0573871e-001  5.0720391e-001  5.0891331e-001  5.1013431e-001  5.1111111e-001  5.1330891e-001  5.1697192e-001  5.2210012e-001  5.2796093e-001  5.3015873e-001  5.2625153e-001  5.2039072e-001  5.1404151e-001  5.1037851e-001  5.0818071e-001  5.0158730e-001  4.8278388e-001  4.6349206e-001  4.4371184e-001  4.2832723e-001  4.2100122e-001  4.2417582e-001  4.3443223e-001  4.4517705e-001  4.5323565e-001  4.5909646e-001  4.6642247e-001  4.7521368e-001  4.8571429e-001  5.0158730e-001  5.1086691e-001  5.1599512e-001  5.1916972e-001  5.2185592e-001  5.2136752e-001  5.1843712e-001  5.1672772e-001  5.1623932e-001  5.1697192e-001  5.1746032e-001  5.1819292e-001  5.1672772e-001  5.1404151e-001  5.1013431e-001  5.0720391e-001  5.0573871e-001  5.0427350e-001  5.0280830e-001  5.0427350e-001  5.0573871e-001  5.0573871e-001  5.0451770e-001  5.0427350e-001  5.0451770e-001  5.0818071e-001  5.1452991e-001  5.1892552e-001  5.2039072e-001  5.2185592e-001  5.2405372e-001  5.2429792e-001  5.2551893e-001  5.2649573e-001  5.2551893e-001  5.2210012e-001  5.1770452e-001  5.1623932e-001  5.1550672e-001  5.1526252e-001  5.1770452e-001  5.1990232e-001  5.1916972e-001  5.1697192e-001  5.1526252e-001  5.1306471e-001  5.1330891e-001  5.1379731e-001  5.1477411e-001  5.1550672e-001  5.1623932e-001  5.1672772e-001  5.1599512e-001  5.1623932e-001  5.1746032e-001  5.1746032e-001  5.1623932e-001  5.1526252e-001  5.1452991e-001  5.1526252e-001  5.1623932e-001  5.1672772e-001  5.1526252e-001  5.1404151e-001  5.1306471e-001  5.1404151e-001  5.1477411e-001  5.1379731e-001  5.1184371e-001  5.1086691e-001  5.1037851e-001  5.1037851e-001  5.0866911e-001  5.0525031e-001  5.0280830e-001  5.0061050e-001  4.9523810e-001  4.9230769e-001  4.8864469e-001  4.8620269e-001  4.8498168e-001  4.8424908e-001  4.8547009e-001  4.8644689e-001  4.8693529e-001  4.8766789e-001  4.9059829e-001  4.9426129e-001  5.0085470e-001  5.0231990e-001  5.0207570e-001  5.0012210e-001  5.0231990e-001  5.0525031e-001  5.0720391e-001  5.0940171e-001  5.1452991e-001  5.1843712e-001  5.2136752e-001  5.2356532e-001  5.2698413e-001  5.3015873e-001  5.3357753e-001  5.3577534e-001  5.3797314e-001  5.4017094e-001  5.4163614e-001  5.4114774e-001  5.4017094e-001  5.3577534e-001  5.3089133e-001  5.2844933e-001  5.2625153e-001  5.2576313e-001  5.2429792e-001  5.2283272e-001  5.2063492e-001  5.1892552e-001  5.1623932e-001  5.1623932e-001  5.1623932e-001  5.1843712e-001  5.2039072e-001  5.2185592e-001  5.2332112e-001  5.2625153e-001  5.2551893e-001  5.2332112e-001  5.2210012e-001  5.2063492e-001  5.1843712e-001  5.1550672e-001  5.1330891e-001  5.0866911e-001  5.0280830e-001  4.9279609e-001  4.8840049e-001  4.8400488e-001  4.8205128e-001  4.8034188e-001  4.7521368e-001  4.6666667e-001  4.6056166e-001  4.5543346e-001  4.5128205e-001  4.4981685e-001  4.5054945e-001  4.5689866e-001  4.6056166e-001  4.6593407e-001  4.7252747e-001  4.7985348e-001  4.8571429e-001  4.9304029e-001  5.0427350e-001  5.0940171e-001  5.1086691e-001  5.1086691e-001  5.0866911e-001  5.0573871e-001  5.0451770e-001  5.0647131e-001  5.0744811e-001  5.1013431e-001  5.1111111e-001  5.1526252e-001  5.1746032e-001  5.1770452e-001  5.1623932e-001  5.1452991e-001  5.1379731e-001  5.1404151e-001  5.1452991e-001  5.1257631e-001  5.1037851e-001  5.0940171e-001  5.0793651e-001  5.0647131e-001  5.1159951e-001  5.1257631e-001  5.1159951e-001  5.1111111e-001  5.0818071e-001  5.0525031e-001  5.1086691e-001  5.1526252e-001  5.1746032e-001  5.1916972e-001  5.2283272e-001  5.2258852e-001  5.2063492e-001  5.1843712e-001  5.2039072e-001  5.2185592e-001  5.2283272e-001  5.2258852e-001  5.2576313e-001  5.2478632e-001  5.2405372e-001  5.2429792e-001  5.2405372e-001  5.2478632e-001  5.2478632e-001  5.2405372e-001  5.2478632e-001  5.2405372e-001  5.2063492e-001  5.1550672e-001  5.1159951e-001  5.0891331e-001  5.0866911e-001  5.0940171e-001  5.0866911e-001  5.0866911e-001  5.0744811e-001  5.0671551e-001  5.0573871e-001  5.0500611e-001  5.0280830e-001  5.0207570e-001  5.0280830e-001  5.0427350e-001  5.0573871e-001  5.0647131e-001  5.0647131e-001  5.0671551e-001  5.0573871e-001  5.0500611e-001  5.0573871e-001  5.0647131e-001  5.0598291e-001  5.0378510e-001  5.0207570e-001  5.0085470e-001  5.0085470e-001  5.0231990e-001  5.0305250e-001  5.0280830e-001  5.0354090e-001  5.0280830e-001  5.0231990e-001  5.0158730e-001  5.0207570e-001  5.0207570e-001  5.0280830e-001  5.0378510e-001  5.0525031e-001  5.0573871e-001  5.0525031e-001  5.0378510e-001  5.0354090e-001  5.0305250e-001  5.0207570e-001  5.0207570e-001  5.0207570e-001  5.0280830e-001  5.0280830e-001  5.0280830e-001  5.0231990e-001  5.0500611e-001  5.0793651e-001  5.0940171e-001  5.0671551e-001  5.0573871e-001  5.0573871e-001  5.0647131e-001  5.0744811e-001  5.0866911e-001  5.0818071e-001  5.0744811e-001  5.0525031e-001  5.0378510e-001  5.0378510e-001  5.0354090e-001  5.0378510e-001  5.0500611e-001  5.0525031e-001  5.0451770e-001  5.0573871e-001  5.0720391e-001  5.0793651e-001  5.0720391e-001  5.0793651e-001  5.0720391e-001  5.0598291e-001  5.0354090e-001  5.0451770e-001  5.0598291e-001  5.0720391e-001  5.0866911e-001  5.1086691e-001  5.1037851e-001  5.1013431e-001  5.0818071e-001  5.0671551e-001  5.0818071e-001  5.1013431e-001  5.0891331e-001  5.0647131e-001  5.0378510e-001  5.0305250e-001  5.0378510e-001  5.0451770e-001  5.0647131e-001  5.0720391e-001  5.0818071e-001  5.0720391e-001  5.0573871e-001  5.0305250e-001  5.0207570e-001  5.0231990e-001  5.0231990e-001  5.0134310e-001  5.0280830e-001  5.0354090e-001  5.0451770e-001  5.0525031e-001  5.0647131e-001  5.0573871e-001  5.0427350e-001  5.0207570e-001  4.9645910e-001  4.9352869e-001  4.9133089e-001  4.9010989e-001  4.9426129e-001  5.0354090e-001  5.0793651e-001  5.0964591e-001  5.0818071e-001  5.0573871e-001  5.0451770e-001  5.0744811e-001  5.0793651e-001  5.0720391e-001  5.0525031e-001  5.0378510e-001  5.0158730e-001  5.0134310e-001  4.9499389e-001  4.9084249e-001  4.8864469e-001  4.8766789e-001  4.8473748e-001  4.8180708e-001  4.7960928e-001  4.7887668e-001  4.7985348e-001  4.8107448e-001  4.8180708e-001  4.8424908e-001  4.8937729e-001  4.9499389e-001  5.0085470e-001  5.0158730e-001  5.0085470e-001  5.0061050e-001  5.0305250e-001  5.0818071e-001  5.1843712e-001  5.3211233e-001  5.4383394e-001  5.5042735e-001  5.5335775e-001  5.5409035e-001  5.5286935e-001  5.4993895e-001  5.4603175e-001  5.4017094e-001  5.3455433e-001  5.3137973e-001  5.3211233e-001  5.3064713e-001  5.2722833e-001  5.2478632e-001  5.2332112e-001  5.1892552e-001  5.1477411e-001  5.1379731e-001  5.1477411e-001  5.1550672e-001  5.1672772e-001  5.1623932e-001  5.1452991e-001  5.1452991e-001  5.1379731e-001  5.1111111e-001  5.0647131e-001  5.0378510e-001  5.0158730e-001  5.0134310e-001  5.0158730e-001  5.0280830e-001  5.0427350e-001  5.0451770e-001  5.0573871e-001  5.0671551e-001  5.0647131e-001  5.0744811e-001  5.0720391e-001  5.0573871e-001  5.0500611e-001  5.0354090e-001  5.0451770e-001  5.0647131e-001  5.0744811e-001  5.0720391e-001  5.0671551e-001  5.0525031e-001  5.0354090e-001  5.0134310e-001  5.0085470e-001  5.0231990e-001  5.0378510e-001  5.0158730e-001  4.9645910e-001  4.9352869e-001  4.9206349e-001  4.9230769e-001  4.9377289e-001  4.9377289e-001  4.9377289e-001  4.9499389e-001  5.0280830e-001  5.0500611e-001  5.0305250e-001  5.0012210e-001  4.9304029e-001  4.9304029e-001  4.9499389e-001  5.0061050e-001  5.0134310e-001  5.0280830e-001  5.0427350e-001  5.0573871e-001  5.0647131e-001  5.0573871e-001  5.0354090e-001  5.0085470e-001  4.9426129e-001  4.9010989e-001  4.8547009e-001  4.8351648e-001  4.8180708e-001  4.7985348e-001  4.7741148e-001  4.7912088e-001  4.7667888e-001  4.6739927e-001  4.5470085e-001  4.4151404e-001  4.2612943e-001  4.0805861e-001  3.9047619e-001  3.7069597e-001  3.5091575e-001  3.2527473e-001  2.9792430e-001  2.7106227e-001  2.5030525e-001  2.3858364e-001  2.3589744e-001  2.3858364e-001  2.4664225e-001  2.6300366e-001  2.8864469e-001  3.1868132e-001  3.5140415e-001  3.8144078e-001  4.0586081e-001  4.2637363e-001  4.4371184e-001  4.6080586e-001  4.7814408e-001  4.9230769e-001  5.0964591e-001  5.2185592e-001  5.2942613e-001  5.3504274e-001  5.3748474e-001  5.3797314e-001  5.3943834e-001  5.4261294e-001  5.4554335e-001  5.4969475e-001  5.5213675e-001  5.5506716e-001  5.5726496e-001  5.5848596e-001  5.5726496e-001  5.5653236e-001  5.5555556e-001  5.5555556e-001  5.5335775e-001  5.5262515e-001  5.5140415e-001  5.5115995e-001  5.4969475e-001  5.4822955e-001  5.4700855e-001  5.4774115e-001  5.4847375e-001  5.4700855e-001  5.4627595e-001  5.4529915e-001  5.4456654e-001  5.4407814e-001  5.4334554e-001  5.4236874e-001  5.4114774e-001  5.3968254e-001  5.3894994e-001  5.3650794e-001  5.3504274e-001  5.3504274e-001  5.3675214e-001  5.3748474e-001  5.3821734e-001  5.3821734e-001  5.3797314e-001  5.3601954e-001  5.3455433e-001  5.3528694e-001  5.3675214e-001  5.3724054e-001  5.3724054e-001  5.3504274e-001  5.3211233e-001  5.3162393e-001  5.3357753e-001  5.3382173e-001  5.3235653e-001  5.3162393e-001  5.3211233e-001  5.3357753e-001  5.3382173e-001  5.3504274e-001  5.3504274e-001  5.3577534e-001  5.3650794e-001  5.3528694e-001  5.3235653e-001  5.3089133e-001  5.3064713e-001  5.3211233e-001  5.3284493e-001  5.3431013e-001  5.3455433e-001  5.3357753e-001  5.3382173e-001  5.3431013e-001  5.3382173e-001  5.3382173e-001  5.3382173e-001  5.3504274e-001  5.3528694e-001  5.3357753e-001  5.3308913e-001  5.3308913e-001  5.3382173e-001  5.3357753e-001  5.3357753e-001  5.3284493e-001  5.3431013e-001  5.3528694e-001  5.3601954e-001  5.3431013e-001  5.3357753e-001  5.3357753e-001  5.3211233e-001  5.3064713e-001  5.3137973e-001  5.3162393e-001  5.3211233e-001  5.3211233e-001  5.3357753e-001  5.3504274e-001  5.3357753e-001  5.3308913e-001  5.3235653e-001  5.3211233e-001  5.3089133e-001  5.3015873e-001  5.2991453e-001  5.2869353e-001  5.2625153e-001  5.2576313e-001  5.2503053e-001  5.2478632e-001  5.2356532e-001  5.2332112e-001  5.2258852e-001  5.2258852e-001  5.2258852e-001  5.2356532e-001  5.2356532e-001  5.2283272e-001  5.2136752e-001  5.2039072e-001  5.1965812e-001  5.2039072e-001  5.2136752e-001  5.2185592e-001  5.2356532e-001  5.2649573e-001  5.2844933e-001  5.2844933e-001  5.2942613e-001  5.3064713e-001  5.3162393e-001  5.3211233e-001  5.3137973e-001  5.2942613e-001  5.2918193e-001  5.2918193e-001  5.2869353e-001  5.2844933e-001  5.2796093e-001  5.2478632e-001  5.1990232e-001  5.1746032e-001  5.1599512e-001  5.1452991e-001  5.1404151e-001  5.1404151e-001  5.1526252e-001  5.1599512e-001  5.1623932e-001  5.1550672e-001  5.1550672e-001  5.1746032e-001  5.1672772e-001  5.1526252e-001  5.1404151e-001  5.1452991e-001  5.1477411e-001  5.1550672e-001  5.1452991e-001  5.1477411e-001  5.1623932e-001  5.1819292e-001  5.1916972e-001  5.1916972e-001  5.1770452e-001  5.1990232e-001  5.2063492e-001  5.2185592e-001  5.2258852e-001  5.2185592e-001  5.2136752e-001  5.2112332e-001  5.2112332e-001  5.1965812e-001  5.1916972e-001  5.2112332e-001  5.2258852e-001  5.2185592e-001  5.2136752e-001  5.2063492e-001  5.2039072e-001  5.1965812e-001  5.1770452e-001  5.1623932e-001  5.1599512e-001  5.1550672e-001  5.1599512e-001  5.1599512e-001  5.1697192e-001  5.1746032e-001  5.1623932e-001  5.1599512e-001  5.1770452e-001  5.1892552e-001  5.1819292e-001  5.1697192e-001  5.1672772e-001  5.1770452e-001  5.1843712e-001  5.1990232e-001  5.1965812e-001  5.1916972e-001  5.1819292e-001  5.2039072e-001  5.2136752e-001  5.2063492e-001  5.1916972e-001  5.1916972e-001  5.1819292e-001  5.1916972e-001  5.1965812e-001  5.1965812e-001  5.1990232e-001  5.2136752e-001  5.2185592e-001  5.2185592e-001  5.2039072e-001  5.1892552e-001  5.1843712e-001  5.1892552e-001  5.1843712e-001  5.1965812e-001  5.2112332e-001  5.2039072e-001  5.1843712e-001  5.1623932e-001  5.1477411e-001  5.1452991e-001  5.1526252e-001  5.1550672e-001  5.1623932e-001  5.1746032e-001  5.1990232e-001  5.2112332e-001  5.1916972e-001  5.1672772e-001  5.1672772e-001  5.1770452e-001  5.1965812e-001  5.1916972e-001  5.1697192e-001  5.1379731e-001  5.1477411e-001  5.1746032e-001  5.1672772e-001  5.1404151e-001  5.1330891e-001  5.1379731e-001  5.1404151e-001  5.1550672e-001  5.1746032e-001  5.1892552e-001  5.1843712e-001  5.1916972e-001  5.1746032e-001  5.1526252e-001  5.1477411e-001  5.1526252e-001  5.1477411e-001  5.1477411e-001  5.1477411e-001  5.1550672e-001  5.1623932e-001  5.1697192e-001  5.1697192e-001  5.1697192e-001  5.1599512e-001  5.1623932e-001  5.1672772e-001  5.1697192e-001  5.1599512e-001  5.1623932e-001  5.1770452e-001  5.1746032e-001  5.1819292e-001  5.2039072e-001  5.2136752e-001  5.2112332e-001  5.2258852e-001  5.2063492e-001  5.1746032e-001  5.1477411e-001  5.1452991e-001  5.1477411e-001  5.1746032e-001  5.1819292e-001  5.1892552e-001  5.1965812e-001  5.2112332e-001  5.2258852e-001  5.2283272e-001  5.2283272e-001  5.2356532e-001  5.2332112e-001  5.2258852e-001  5.2283272e-001  5.2551893e-001  5.2918193e-001  5.3162393e-001  5.3308913e-001  5.3382173e-001  5.3137973e-001  5.2551893e-001  5.2039072e-001  5.1550672e-001  5.1037851e-001  5.0500611e-001  5.0061050e-001  4.9426129e-001  4.9450549e-001  5.0012210e-001  5.0134310e-001  5.0354090e-001  5.0573871e-001  5.0793651e-001  5.0964591e-001  5.1111111e-001  5.1257631e-001  5.1526252e-001  5.1697192e-001  5.1892552e-001  5.2063492e-001  5.2283272e-001  5.2356532e-001  5.2405372e-001  5.2258852e-001  5.2039072e-001  5.1746032e-001  5.1623932e-001  5.1404151e-001  5.1330891e-001  5.1257631e-001  5.1257631e-001  5.1306471e-001  5.1330891e-001  5.1452991e-001  5.1746032e-001  5.1916972e-001  5.1916972e-001  5.1672772e-001  5.1257631e-001  5.1037851e-001  5.1013431e-001  5.1159951e-001  5.1159951e-001  5.1184371e-001  5.1159951e-001  5.1184371e-001  5.1330891e-001  5.1452991e-001  5.1477411e-001  5.1550672e-001  5.1477411e-001  5.1623932e-001  5.1746032e-001  5.1819292e-001  5.1819292e-001  5.1892552e-001  5.1819292e-001  5.1892552e-001  5.1892552e-001  5.2039072e-001  5.2136752e-001  5.2283272e-001  5.2210012e-001  5.2136752e-001  5.2136752e-001  5.2185592e-001  5.2332112e-001  5.2356532e-001  5.2332112e-001  5.2185592e-001  5.2063492e-001  5.1892552e-001  5.1916972e-001  5.2039072e-001  5.2112332e-001  5.2185592e-001  5.2356532e-001  5.2478632e-001  5.2576313e-001  5.2576313e-001  5.2576313e-001  5.2625153e-001  5.2698413e-001  5.2576313e-001  5.2405372e-001  5.2332112e-001  5.2551893e-001  5.2722833e-001  5.2771673e-001  5.2649573e-001  5.2771673e-001  5.2771673e-001  5.2551893e-001  5.2503053e-001  5.2478632e-001  5.2478632e-001  5.2332112e-001  5.2332112e-001  5.2210012e-001  5.2039072e-001  5.1843712e-001  5.1746032e-001  5.1550672e-001  5.1526252e-001  5.1623932e-001  5.1819292e-001  5.1892552e-001  5.1990232e-001  5.1990232e-001  5.2039072e-001  5.2039072e-001  5.1965812e-001  5.1990232e-001  5.2039072e-001  5.2039072e-001  5.2039072e-001  5.2039072e-001  5.1916972e-001  5.1965812e-001  5.1990232e-001  5.1697192e-001  5.1184371e-001  5.1086691e-001  5.1233211e-001  5.1526252e-001  5.1623932e-001  5.1404151e-001  5.0964591e-001  5.0818071e-001  5.0891331e-001  5.1111111e-001  5.1306471e-001  5.1404151e-001  5.1477411e-001  5.1477411e-001  5.1404151e-001  5.1330891e-001  5.1404151e-001  5.1477411e-001  5.1477411e-001  5.1452991e-001  5.1379731e-001  5.1257631e-001  5.1111111e-001  5.1037851e-001  5.1233211e-001  5.1330891e-001  5.1452991e-001  5.1452991e-001  5.1330891e-001  5.1306471e-001  5.1477411e-001  5.1623932e-001  5.1819292e-001  5.1965812e-001  5.2258852e-001  5.2478632e-001  5.2576313e-001  5.2503053e-001  5.2405372e-001  5.2258852e-001  5.2258852e-001  5.2283272e-001  5.2258852e-001  5.2185592e-001  