  4.4932845e-001  4.4981685e-001  4.4835165e-001  4.4737485e-001  4.4688645e-001  4.4688645e-001  4.4493284e-001  4.4493284e-001  4.4688645e-001  4.4688645e-001  4.4835165e-001  4.4884005e-001  4.4737485e-001  4.4737485e-001  4.5177045e-001  4.5225885e-001  4.4932845e-001  4.4737485e-001  4.4542125e-001  4.4444444e-001  4.4493284e-001  4.4102564e-001  4.3272283e-001  4.2295482e-001  4.2051282e-001  4.1660562e-001  4.1367521e-001  4.1318681e-001  4.1514042e-001  4.1465201e-001  4.0683761e-001  3.9072039e-001  3.7509158e-001  3.6678877e-001  3.5946276e-001  3.4139194e-001  3.1404151e-001  2.8571429e-001  2.6959707e-001  2.6617827e-001  2.7203907e-001  2.7399267e-001  2.7301587e-001  2.8571429e-001  3.0476190e-001  3.2136752e-001  3.3504274e-001  3.4871795e-001  3.5995116e-001  3.7216117e-001  3.8534799e-001  3.9755800e-001  4.0634921e-001  4.1611722e-001  4.2588523e-001  4.3516484e-001  4.4151404e-001  4.4688645e-001  4.5225885e-001  4.5763126e-001  4.6007326e-001  4.6105006e-001  4.6251526e-001  4.6642247e-001  4.6886447e-001  4.6886447e-001  4.7179487e-001  4.7472527e-001  4.7521368e-001  4.7716728e-001  4.7960928e-001  4.8058608e-001  4.8156288e-001  4.8156288e-001  4.8205128e-001  4.8205128e-001  4.8253968e-001  4.8253968e-001  4.8253968e-001  4.8205128e-001  4.7960928e-001  4.7863248e-001  4.7960928e-001  4.8009768e-001  4.7667888e-001  4.7570208e-001  4.7570208e-001  4.7472527e-001  4.7228327e-001  4.7179487e-001  4.6739927e-001  4.6446886e-001  4.6251526e-001  4.6202686e-001  4.5860806e-001  4.5567766e-001  4.5421245e-001  4.5567766e-001  4.5372405e-001  4.5177045e-001  4.4835165e-001  4.4688645e-001  4.4835165e-001  4.5421245e-001  4.5714286e-001  4.5811966e-001  4.5909646e-001  4.6300366e-001  4.6251526e-001  4.6153846e-001  4.6105006e-001  4.5763126e-001  4.5470085e-001  4.5470085e-001  4.5470085e-001  4.5030525e-001  4.4297924e-001  4.3614164e-001  4.3321123e-001  4.2881563e-001  4.2539683e-001  4.2100122e-001  4.1269841e-001  4.0537241e-001  4.0097680e-001  3.9853480e-001  3.9658120e-001  3.9462759e-001  3.9413919e-001  3.9267399e-001  3.9120879e-001  3.8974359e-001  3.8778999e-001  3.8730159e-001  3.8632479e-001  3.8632479e-001  3.8534799e-001  3.8485958e-001  3.8485958e-001  3.8534799e-001  3.8290598e-001  3.8095238e-001  3.7997558e-001  3.8339438e-001  3.8339438e-001  3.8144078e-001  3.8046398e-001  3.7899878e-001  3.7753358e-001  3.7948718e-001  3.7411477e-001  3.7069597e-001  3.6727717e-001  3.6581197e-001  3.6239316e-001  3.5555556e-001  3.4285714e-001  3.3455433e-001  3.3211233e-001  3.2869353e-001  3.2576313e-001  3.2527473e-001  3.2771673e-001  3.2722833e-001  3.1843712e-001  2.9841270e-001  2.7985348e-001  2.6764347e-001  2.6129426e-001  2.4273504e-001  2.1489621e-001  1.8852259e-001  1.7435897e-001  1.7387057e-001  1.8608059e-001  1.9194139e-001  1.9633700e-001  2.1001221e-001  2.3052503e-001  2.4908425e-001  2.6471306e-001  2.7936508e-001  2.9108669e-001  3.0280830e-001  3.1404151e-001  3.2429792e-001  3.3308913e-001  3.4285714e-001  3.5311355e-001  3.6336996e-001  3.6923077e-001  3.7509158e-001  3.7948718e-001  3.8534799e-001  3.8876679e-001  3.9120879e-001  3.9365079e-001  3.9804640e-001  4.0000000e-001  4.0244200e-001  4.0537241e-001  4.0879121e-001  4.1074481e-001  4.1318681e-001  4.1562882e-001  4.1855922e-001  4.2051282e-001  4.2197802e-001  4.2197802e-001  4.2539683e-001  4.2979243e-001  4.3076923e-001  4.3076923e-001  4.3076923e-001  4.3174603e-001  4.3272283e-001  4.3369963e-001  4.3369963e-001  4.3467643e-001  4.3272283e-001  4.3125763e-001  4.3125763e-001  4.3174603e-001  4.3125763e-001  4.3076923e-001  4.2881563e-001  4.2735043e-001  4.2686203e-001  4.2588523e-001  4.2588523e-001  4.2686203e-001  4.2735043e-001  4.2735043e-001  4.2783883e-001  4.2539683e-001  4.2539683e-001  4.2539683e-001  4.2979243e-001  4.3760684e-001  4.4151404e-001  4.4151404e-001  4.4444444e-001  4.4590965e-001  4.4639805e-001  4.4444444e-001  4.4395604e-001  4.4346764e-001  4.4346764e-001  4.4004884e-001  4.3809524e-001  4.3076923e-001  4.2393162e-001  4.2100122e-001  4.1855922e-001  4.1514042e-001  4.1172161e-001  4.0341880e-001  4.0000000e-001  3.9560440e-001  3.9023199e-001  3.8876679e-001  3.8876679e-001  3.8681319e-001  3.8583639e-001  3.8583639e-001  3.8290598e-001  3.8290598e-001  3.8485958e-001  3.8681319e-001  3.8583639e-001  3.8339438e-001  3.8290598e-001  3.8290598e-001  3.8339438e-001  3.8437118e-001  3.8339438e-001  3.8192918e-001  3.8192918e-001  3.8388278e-001  3.8388278e-001  3.8632479e-001  3.8876679e-001  3.9023199e-001  3.9120879e-001  3.8730159e-001  3.8681319e-001  3.8632479e-001  3.8632479e-001  3.8388278e-001  3.7851038e-001  3.7069597e-001  3.6336996e-001  3.6190476e-001  3.5946276e-001  3.5653236e-001  3.5750916e-001  3.6190476e-001  3.6532357e-001  3.5897436e-001  3.4529915e-001  3.2478632e-001  3.1550672e-001  3.1013431e-001  2.9694750e-001  2.7496947e-001  2.5494505e-001  2.4517705e-001  2.4957265e-001  2.6666667e-001  2.8034188e-001  2.9059829e-001  3.0818071e-001  3.2722833e-001  3.4529915e-001  3.6190476e-001  3.7460317e-001  3.8778999e-001  3.9804640e-001  4.1123321e-001  4.2344322e-001  4.3418803e-001  4.4493284e-001  4.5665446e-001  4.6593407e-001  4.7326007e-001  4.8156288e-001  4.8937729e-001  4.9377289e-001  4.9816850e-001  5.0354090e-001  5.0744811e-001  5.1135531e-001  5.1477411e-001  5.1672772e-001  5.1868132e-001  5.2503053e-001  5.2893773e-001  5.3284493e-001  5.3626374e-001  5.3870574e-001  5.3870574e-001  5.4212454e-001  5.4456654e-001  5.4798535e-001  5.4896215e-001  5.4993895e-001  5.5091575e-001  5.5335775e-001  5.5189255e-001  5.5189255e-001  5.5384615e-001  5.5677656e-001  5.5677656e-001  5.5873016e-001  5.5775336e-001  5.5531136e-001  5.5531136e-001  5.5677656e-001  5.5677656e-001  5.5628816e-001  5.5482295e-001  5.5335775e-001  5.5335775e-001  5.5384615e-001  5.5628816e-001  5.5726496e-001  5.5775336e-001  5.5579976e-001  5.5628816e-001  5.5873016e-001  5.5921856e-001  5.6312576e-001  5.6996337e-001  5.7191697e-001  5.7582418e-001  5.8021978e-001  5.8266178e-001  5.8168498e-001  5.8168498e-001  5.8070818e-001  5.7924298e-001  5.7777778e-001  5.7728938e-001  5.7387057e-001  5.6849817e-001  5.6263736e-001  5.5921856e-001  5.5482295e-001  5.5091575e-001  5.5042735e-001  5.4261294e-001  5.3528694e-001  5.3040293e-001  5.2747253e-001  5.2405372e-001  5.2307692e-001  5.2112332e-001  5.2161172e-001  5.2014652e-001  5.1965812e-001  5.1916972e-001  5.1965812e-001  5.1868132e-001  5.1965812e-001  5.1965812e-001  5.1868132e-001  5.1721612e-001  5.1868132e-001  5.1819292e-001  5.1672772e-001  5.1672772e-001  5.1672772e-001  5.1623932e-001  5.1819292e-001  5.2014652e-001  5.2014652e-001  5.2063492e-001  5.2063492e-001  5.1526252e-001  5.1233211e-001  5.1135531e-001  5.0940171e-001  5.0695971e-001  5.0061050e-001  4.8937729e-001  4.7960928e-001  4.7570208e-001  4.7130647e-001  4.6691087e-001  4.6935287e-001  4.7423687e-001  4.7570208e-001  4.6935287e-001  4.5372405e-001  4.3272283e-001  4.2148962e-001  4.1660562e-001  4.0488400e-001  3.8437118e-001  3.6483516e-001  3.5115995e-001  3.5262515e-001  3.7069597e-001  3.8583639e-001  3.9511600e-001  4.1123321e-001  4.2686203e-001  4.4346764e-001  4.5567766e-001  4.6935287e-001  4.8058608e-001  4.9035409e-001  5.0158730e-001  5.1233211e-001  5.2161172e-001  5.3137973e-001  5.3968254e-001  5.4749695e-001  5.5384615e-001  5.5873016e-001  5.6556777e-001  5.6996337e-001  5.7142857e-001  5.7387057e-001  5.7582418e-001  5.7631258e-001  5.7875458e-001  5.7973138e-001  5.8217338e-001  5.8363858e-001  5.8510379e-001  5.8461538e-001  5.8754579e-001  5.9047619e-001  5.9340659e-001  5.9487179e-001  5.9487179e-001  5.9389499e-001  5.9438339e-001  5.9487179e-001  5.9438339e-001  5.9438339e-001  5.9438339e-001  5.9438339e-001  5.9340659e-001  5.9242979e-001  5.9096459e-001  5.9145299e-001  5.9096459e-001  5.9096459e-001  5.8949939e-001  5.8705739e-001  5.8510379e-001  5.8461538e-001  5.8363858e-001  5.8315018e-001  5.8168498e-001  5.8266178e-001  5.8070818e-001  5.8021978e-001  5.8119658e-001  5.8217338e-001  5.8266178e-001  5.8510379e-001  5.8754579e-001  5.9242979e-001  5.9633700e-001  5.9829060e-001  5.9926740e-001  6.0122100e-001  6.0317460e-001  6.0219780e-001  5.9975580e-001  5.9682540e-001  5.9584860e-001  5.9389499e-001  5.9194139e-001  5.8705739e-001  5.7924298e-001  5.7142857e-001  5.6947497e-001  5.6507937e-001  5.6068376e-001  5.5579976e-001  5.4749695e-001  5.4114774e-001  5.3675214e-001  5.3284493e-001  5.2893773e-001  5.2649573e-001  5.2258852e-001  5.1965812e-001  5.2161172e-001  5.2307692e-001  5.2210012e-001  5.2161172e-001  5.2063492e-001  5.1916972e-001  5.1965812e-001  5.2014652e-001  5.1868132e-001  5.1868132e-001  5.1916972e-001  5.2063492e-001  5.1770452e-001  5.1819292e-001  5.1916972e-001  5.2112332e-001  5.2356532e-001  5.2356532e-001  5.2258852e-001  5.2210012e-001  5.1672772e-001  5.1721612e-001  5.1379731e-001  5.1233211e-001  5.0940171e-001  5.0305250e-001  4.9133089e-001  4.8156288e-001  4.7814408e-001  4.7228327e-001  4.7081807e-001  4.7277167e-001  4.7912088e-001  4.7912088e-001  4.6935287e-001  4.5079365e-001  4.3321123e-001  4.2197802e-001  4.1514042e-001  3.9853480e-001  3.7655678e-001  3.5750916e-001  3.5067155e-001  3.5457875e-001  3.7167277e-001  3.8290598e-001  3.9316239e-001  4.0927961e-001  4.2490842e-001  4.4053724e-001  4.5518926e-001  4.6886447e-001  4.8205128e-001  4.9230769e-001  5.0256410e-001  5.1184371e-001  5.2210012e-001  5.3284493e-001  5.4212454e-001  5.5189255e-001  5.5677656e-001  5.6361416e-001  5.6996337e-001  5.7387057e-001  5.7484737e-001  5.8070818e-001  5.8412698e-001  5.8705739e-001  5.8949939e-001  5.9145299e-001  5.9194139e-001  5.9438339e-001  5.9682540e-001  5.9829060e-001  5.9975580e-001  6.0219780e-001  6.0268620e-001  6.0317460e-001  6.0415140e-001  6.0561661e-001  6.0610501e-001  6.0708181e-001  6.0512821e-001  6.0610501e-001  6.0463980e-001  6.0512821e-001  6.0805861e-001  6.0512821e-001  6.0317460e-001  6.0317460e-001  6.0317460e-001  6.0122100e-001  6.0122100e-001  6.0122100e-001  5.9877900e-001  5.9633700e-001  5.9438339e-001  5.9291819e-001  5.9291819e-001  5.9242979e-001  5.9242979e-001  5.8998779e-001  5.8949939e-001  5.8949939e-001  5.8901099e-001  5.9145299e-001  5.9340659e-001  5.9877900e-001  6.0170940e-001  6.0219780e-001  6.0268620e-001  6.0463980e-001  6.0463980e-001  6.0463980e-001  6.0024420e-001  5.9731380e-001  5.9536020e-001  5.9242979e-001  5.8852259e-001  5.8461538e-001  5.7435897e-001  5.6898657e-001  5.6556777e-001  5.5824176e-001  5.5433455e-001  5.5042735e-001  5.4261294e-001  5.3675214e-001  5.3235653e-001  5.2698413e-001  5.2356532e-001  5.2161172e-001  5.2112332e-001  5.1868132e-001  5.1623932e-001  5.1526252e-001  5.1623932e-001  5.1477411e-001  5.1330891e-001  5.1233211e-001  5.1282051e-001  5.1135531e-001  5.1184371e-001  5.1135531e-001  5.1086691e-001  5.0891331e-001  5.0940171e-001  5.0989011e-001  5.0891331e-001  5.0891331e-001  5.0940171e-001  5.0940171e-001  5.0989011e-001  5.0744811e-001  5.0256410e-001  5.0207570e-001  5.0061050e-001  4.9768010e-001  4.9279609e-001  4.8449328e-001  4.7374847e-001  4.6691087e-001  4.6251526e-001  4.5665446e-001  4.5567766e-001  4.5909646e-001  4.6300366e-001  4.6007326e-001  4.4835165e-001  4.2979243e-001  4.1465201e-001  4.0488400e-001  3.9462759e-001  3.7704518e-001  3.5702076e-001  3.4090354e-001  3.3601954e-001  3.4774115e-001  3.6385836e-001  3.7264957e-001  3.8534799e-001  4.0244200e-001  4.1953602e-001  4.3369963e-001  4.4786325e-001  4.5958486e-001  4.7228327e-001  4.8302808e-001  4.9523810e-001  5.0793651e-001  5.1819292e-001  5.2747253e-001  5.3626374e-001  5.4212454e-001  5.4896215e-001  5.5824176e-001  5.6459096e-001  5.6849817e-001  5.7094017e-001  5.7240537e-001  5.7387057e-001  5.7728938e-001  5.8070818e-001  5.8266178e-001  5.8363858e-001  5.8608059e-001  5.8803419e-001  5.8998779e-001  5.8998779e-001  5.9145299e-001  5.9242979e-001  5.9438339e-001  5.9438339e-001  5.9536020e-001  5.9389499e-001  5.9389499e-001  5.9291819e-001  5.9536020e-001  5.9536020e-001  5.9487179e-001  5.9242979e-001  5.9047619e-001  5.8949939e-001  5.8949939e-001  5.8754579e-001  5.8705739e-001  5.8461538e-001  5.8266178e-001  5.7973138e-001  5.7728938e-001  5.7533578e-001  5.7435897e-001  5.7387057e-001  5.7338217e-001  5.7142857e-001  5.6996337e-001  5.6996337e-001  5.6752137e-001  5.6703297e-001  5.6703297e-001  5.6849817e-001  5.7142857e-001  5.7338217e-001  5.7582418e-001  5.7728938e-001  5.7680098e-001  5.7484737e-001  5.7191697e-001  5.6800977e-001  5.6556777e-001  5.6361416e-001  5.5921856e-001  5.5286935e-001  5.4456654e-001  5.3675214e-001  5.3186813e-001  5.2600733e-001  5.2161172e-001  5.1379731e-001  5.0207570e-001  4.9377289e-001  4.8937729e-001  4.8449328e-001  4.8156288e-001  4.7667888e-001  4.7374847e-001  4.6935287e-001  4.6837607e-001  4.6593407e-001  4.6349206e-001  4.6202686e-001  4.6202686e-001  4.5958486e-001  4.5665446e-001  4.5372405e-001  4.5274725e-001  4.5128205e-001  4.5030525e-001  4.4835165e-001  4.4542125e-001  4.4249084e-001  4.4297924e-001  4.4297924e-001  4.4200244e-001  4.4102564e-001  4.4249084e-001  4.4151404e-001  4.3467643e-001  4.3369963e-001  4.3125763e-001  4.2979243e-001  4.2588523e-001  4.1709402e-001  4.0390720e-001  3.9462759e-001  3.9169719e-001  3.8778999e-001  3.8485958e-001  3.8632479e-001  3.9120879e-001  3.9120879e-001  3.8290598e-001  3.6581197e-001  3.4822955e-001  3.3504274e-001  3.2722833e-001  3.1257631e-001  2.9059829e-001  2.6715507e-001  2.5494505e-001  2.5543346e-001  2.6813187e-001  2.7350427e-001  2.7838828e-001  2.9206349e-001  3.1062271e-001  3.2527473e-001  3.3894994e-001  3.5067155e-001  3.6288156e-001  3.7313797e-001  3.8437118e-001  3.9658120e-001  4.0830281e-001  4.1709402e-001  4.2783883e-001  4.3614164e-001  4.4102564e-001  4.4639805e-001  4.5470085e-001  4.5909646e-001  4.6153846e-001  4.6544567e-001  4.6788767e-001  4.7081807e-001  4.7228327e-001  4.7472527e-001  4.7765568e-001  4.8058608e-001  4.8302808e-001  4.8498168e-001  4.8644689e-001  4.8840049e-001  4.9035409e-001  4.9230769e-001  4.9230769e-001  4.9328449e-001  4.9523810e-001  4.9670330e-001  4.9621490e-001  4.9621490e-001  4.9670330e-001  4.9621490e-001  4.9621490e-001  4.9572650e-001  4.9523810e-001  4.9523810e-001  4.9523810e-001  4.9426129e-001  4.9279609e-001  4.9133089e-001  4.9133089e-001  4.8791209e-001  4.8595849e-001  4.8351648e-001  4.8351648e-001  4.8205128e-001  4.8107448e-001  4.7863248e-001  4.7814408e-001  4.7472527e-001  4.7374847e-001  4.7423687e-001  4.7667888e-001  4.8107448e-001  4.8547009e-001  4.8644689e-001  4.8840049e-001  4.9181929e-001  4.9474969e-001  4.9377289e-001  4.9181929e-001  4.8937729e-001  4.8693529e-001  4.8644689e-001  4.8449328e-001  4.8009768e-001  4.7179487e-001  4.6642247e-001  4.6349206e-001  4.5860806e-001  4.5421245e-001  4.4884005e-001  4.4102564e-001  4.3614164e-001  4.3076923e-001  4.2783883e-001  4.2686203e-001  4.2393162e-001  4.2100122e-001  4.2100122e-001  4.2100122e-001  4.2148962e-001  4.2100122e-001  4.1953602e-001  4.1758242e-001  4.1709402e-001  4.1758242e-001  4.1709402e-001  4.1709402e-001  4.1660562e-001  4.1660562e-001  4.1562882e-001  4.1514042e-001  4.1611722e-001  4.1807082e-001  4.1807082e-001  4.1855922e-001  4.1807082e-001  4.2100122e-001  4.2051282e-001  4.1611722e-001  4.1416361e-001  4.1221001e-001  4.1025641e-001  4.0781441e-001  4.0000000e-001  3.8974359e-001  3.8485958e-001  3.8681319e-001  3.8437118e-001  3.8485958e-001  3.8876679e-001  3.9218559e-001  3.9072039e-001  3.8095238e-001  3.6532357e-001  3.4920635e-001  3.4090354e-001  3.3260073e-001  3.1159951e-001  2.8717949e-001  2.6617827e-001  2.5689866e-001  2.6080586e-001  2.7008547e-001  2.7350427e-001  2.7887668e-001  2.9499389e-001  3.1111111e-001  3.2771673e-001  3.4334554e-001  3.5848596e-001  3.7020757e-001  3.8339438e-001  3.9853480e-001  4.1074481e-001  4.2295482e-001  4.3223443e-001  4.4200244e-001  4.5128205e-001  4.5958486e-001  4.6398046e-001  4.6935287e-001  4.7277167e-001  4.7765568e-001  4.7960928e-001  4.8351648e-001  4.8595849e-001  4.8888889e-001  4.9084249e-001  4.9572650e-001  4.9816850e-001  5.0061050e-001  5.0256410e-001  5.0549451e-001  5.0793651e-001  5.1086691e-001  5.1135531e-001  5.1233211e-001  5.1330891e-001  5.1379731e-001  5.1526252e-001  5.1526252e-001  5.1526252e-001  5.1477411e-001  5.1575092e-001  5.1379731e-001  5.1330891e-001  5.1282051e-001  5.1233211e-001  5.0989011e-001  5.0793651e-001  5.0647131e-001  5.0598291e-001  5.0354090e-001  5.0158730e-001  4.9768010e-001  4.9523810e-001  4.9377289e-001  4.9426129e-001  4.9328449e-001  4.9084249e-001  4.8888889e-001  4.8742369e-001  4.8595849e-001  4.8693529e-001  4.8840049e-001  4.9133089e-001  4.9474969e-001  4.9719170e-001  5.0158730e-001  5.0158730e-001  5.0305250e-001  5.0256410e-001  5.0207570e-001  5.0012210e-001  4.9768010e-001  4.9523810e-001  4.9328449e-001  4.8840049e-001  4.8205128e-001  4.7570208e-001  4.7326007e-001  4.6788767e-001  4.6446886e-001  4.6007326e-001  4.5225885e-001  4.4639805e-001  4.4249084e-001  4.3907204e-001  4.3760684e-001  4.3663004e-001  4.3418803e-001  4.3272283e-001  4.3125763e-001  4.3174603e-001  4.2979243e-001  4.2881563e-001  4.2832723e-001  4.2881563e-001  4.2881563e-001  4.2930403e-001  4.2832723e-001  4.2783883e-001  4.2783883e-001  4.2930403e-001  4.3076923e-001  4.3028083e-001  4.3028083e-001  4.3223443e-001  4.3223443e-001  4.3418803e-001  4.3663004e-001  4.3663004e-001  4.3272283e-001  4.3076923e-001  4.2832723e-001  4.2393162e-001  4.1855922e-001  4.1221001e-001  4.0195360e-001  3.9365079e-001  3.9413919e-001  3.9413919e-001  3.9609280e-001  3.9853480e-001  4.0195360e-001  4.0097680e-001  3.9365079e-001  3.7704518e-001  3.6288156e-001  3.5262515e-001  3.4578755e-001  3.2673993e-001  3.0280830e-001  2.8083028e-001  2.6813187e-001  2.6813187e-001  2.7985348e-001  2.8424908e-001  2.8766789e-001  3.0329670e-001  3.2234432e-001  3.3894994e-001  3.5555556e-001  3.7069597e-001  3.8192918e-001  3.9413919e-001  4.0927961e-001  4.2197802e-001  4.3272283e-001  4.4346764e-001  4.5274725e-001  4.6202686e-001  4.6886447e-001  4.7472527e-001  4.8058608e-001  4.8742369e-001  4.8888889e-001  4.9133089e-001  4.9279609e-001  4.9523810e-001  4.9865690e-001  5.0061050e-001  5.0207570e-001  5.0305250e-001  5.0598291e-001  5.0793651e-001  5.0940171e-001  5.1086691e-001  5.1233211e-001  5.1135531e-001  5.1282051e-001  5.1477411e-001  5.1672772e-001  5.1575092e-001  5.1575092e-001  5.1477411e-001  5.1526252e-001  5.1477411e-001  5.1428571e-001  5.1135531e-001  5.0940171e-001  5.0744811e-001  5.0744811e-001  5.0744811e-001  5.0647131e-001  5.0354090e-001  4.9865690e-001  4.9572650e-001  4.9328449e-001  4.9133089e-001  4.8791209e-001  4.8595849e-001  4.8498168e-001  4.8449328e-001  4.8253968e-001  4.8107448e-001  4.7863248e-001  4.7814408e-001  4.7814408e-001  4.8253968e-001  4.8644689e-001  4.8840049e-001  4.9035409e-001  4.9181929e-001  4.9377289e-001  4.9377289e-001  4.9279609e-001  4.9133089e-001  4.8986569e-001  4.8742369e-001  4.8547009e-001  4.8302808e-001  4.7716728e-001  4.6935287e-001  4.6544567e-001  4.6202686e-001  4.5714286e-001  4.5372405e-001  4.4688645e-001  4.3760684e-001  4.3174603e-001  4.2735043e-001  4.2735043e-001  4.2539683e-001  4.2490842e-001  4.2295482e-001  4.2197802e-001  4.2002442e-001  4.2100122e-001  4.2148962e-001  4.2100122e-001  4.2002442e-001  4.1953602e-001  4.1904762e-001  4.1953602e-001  4.2002442e-001  4.2051282e-001  4.2002442e-001  4.2002442e-001  4.2051282e-001  4.2002442e-001  4.2002442e-001  4.2051282e-001  4.2295482e-001  4.2344322e-001  4.2539683e-001  4.2442002e-001  4.2344322e-001  4.2100122e-001  4.2002442e-001  4.2100122e-001  4.1807082e-001  4.1025641e-001  4.0146520e-001  3.9853480e-001  3.9951160e-001  3.9658120e-001  3.9853480e-001  4.0146520e-001  4.0293040e-001  4.0195360e-001  3.9023199e-001  3.7313797e-001  3.5897436e-001  3.5213675e-001  3.4090354e-001  3.1990232e-001  2.9450549e-001  2.7643468e-001  2.6910867e-001  2.7741148e-001  2.8522589e-001  2.8522589e-001  2.9157509e-001  3.1062271e-001  3.3015873e-001  3.4774115e-001  3.6190476e-001  3.7509158e-001  3.8583639e-001  3.9755800e-001  4.1074481e-001  4.2344322e-001  4.3418803e-001  4.4444444e-001  4.5372405e-001  4.6202686e-001  4.6935287e-001  4.7667888e-001  4.8253968e-001  4.8693529e-001  4.8937729e-001  4.9279609e-001  4.9719170e-001  5.0012210e-001  5.0207570e-001  5.0451770e-001  5.0891331e-001  5.1135531e-001  5.1282051e-001  5.1477411e-001  5.1916972e-001  5.2063492e-001  5.2307692e-001  5.2405372e-001  5.2356532e-001  5.2454212e-001  5.2844933e-001  5.2893773e-001  5.2893773e-001  5.3040293e-001  5.3089133e-001  5.2991453e-001  5.2893773e-001  5.3137973e-001  5.3040293e-001  5.2893773e-001  5.2747253e-001  5.2747253e-001  5.2649573e-001  5.2600733e-001  5.2405372e-001  5.2210012e-001  5.1916972e-001  5.1916972e-001  5.1916972e-001  5.1819292e-001  5.1623932e-001  5.1623932e-001  5.1526252e-001  5.1428571e-001  5.1526252e-001  5.1819292e-001  5.2161172e-001  5.2503053e-001  5.2551893e-001  5.2698413e-001  5.2991453e-001  5.3186813e-001  5.3040293e-001  5.2796093e-001  5.2503053e-001  5.2307692e-001  5.2405372e-001  5.2063492e-001  5.1526252e-001  5.0940171e-001  5.0500611e-001  5.0207570e-001  4.9474969e-001  4.8986569e-001  4.8644689e-001  4.7863248e-001  4.7374847e-001  4.6984127e-001  4.6593407e-001  4.6251526e-001  4.6007326e-001  4.5958486e-001  4.5909646e-001  4.5860806e-001  4.5665446e-001  4.5567766e-001  4.5567766e-001  4.5665446e-001  4.5518926e-001  4.5470085e-001  4.5518926e-001  4.5665446e-001  4.5616606e-001  4.5616606e-001  4.5421245e-001  4.5616606e-001  4.5665446e-001  4.5763126e-001  4.5763126e-001  4.5909646e-001  4.6105006e-001  4.6642247e-001  4.7130647e-001  4.7081807e-001  4.6739927e-001  4.7032967e-001  4.7374847e-001  4.7716728e-001  4.7667888e-001  4.7179487e-001  4.6153846e-001  4.5274725e-001  4.4395604e-001  4.3516484e-001  4.3321123e-001  4.3418803e-001  4.3760684e-001  4.3369963e-001  4.2051282e-001  4.0293040e-001  3.9365079e-001  3.8778999e-001  3.7753358e-001  3.5653236e-001  3.3406593e-001  3.1501832e-001  3.0720391e-001  3.1159951e-001  3.1843712e-001  3.1550672e-001  3.2185592e-001  3.4188034e-001  3.6239316e-001  3.8046398e-001  3.9658120e-001  4.1221001e-001  4.2539683e-001  4.3956044e-001  4.5177045e-001  4.6251526e-001  4.7277167e-001  4.8449328e-001  4.9621490e-001  5.0549451e-001  5.0989011e-001  5.1623932e-001  5.2161172e-001  5.2649573e-001  5.2893773e-001  5.3186813e-001  5.3382173e-001  5.3821734e-001  5.4017094e-001  5.4017094e-001  5.4065934e-001  5.4603175e-001  5.5042735e-001  5.5042735e-001  5.5238095e-001  5.5482295e-001  5.5628816e-001  5.5873016e-001  5.6117216e-001  5.6068376e-001  5.5970696e-001  5.6117216e-001  5.6361416e-001  5.6312576e-001  5.6214896e-001  5.6117216e-001  5.6214896e-001  5.6166056e-001  5.6068376e-001  5.6019536e-001  5.5921856e-001  5.5726496e-001  5.5579976e-001  5.5433455e-001  5.5238095e-001  5.5091575e-001  5.5189255e-001  5.5286935e-001  5.5189255e-001  5.5286935e-001  5.5286935e-001  5.5091575e-001  5.5091575e-001  5.5335775e-001  5.5726496e-001  5.6068376e-001  5.6117216e-001  5.6361416e-001  5.6459096e-001  5.6556777e-001  5.6605617e-001  5.6507937e-001  5.5970696e-001  5.5677656e-001  5.5384615e-001  5.4993895e-001  5.4505495e-001  5.4017094e-001  5.3284493e-001  5.3040293e-001  5.2503053e-001  5.2063492e-001  5.1575092e-001  5.0793651e-001  5.0158730e-001  4.9816850e-001  4.9523810e-001  4.9133089e-001  4.8888889e-001  4.8791209e-001  4.8791209e-001  4.8644689e-001  4.8644689e-001  4.8498168e-001  4.8351648e-001  4.8351648e-001  4.8449328e-001  4.8351648e-001  4.8205128e-001  4.8156288e-001  4.8302808e-001  4.8205128e-001  4.8107448e-001  4.8009768e-001  4.8058608e-001  4.8156288e-001  4.8253968e-001  4.8253968e-001  4.8302808e-001  4.8449328e-001  4.8937729e-001  4.9426129e-001  4.9426129e-001  4.9816850e-001  5.0012210e-001  5.0500611e-001  5.1037851e-001  5.0940171e-001  4.9816850e-001  4.8449328e-001  4.7374847e-001  4.6251526e-001  4.5518926e-001  4.5372405e-001  4.5421245e-001  4.5518926e-001  4.4639805e-001  4.3028083e-001  4.1562882e-001  4.0683761e-001  3.9951160e-001  3.8339438e-001  3.5995116e-001  3.3748474e-001  3.2429792e-001  3.2380952e-001  3.3260073e-001  3.3406593e-001  3.3406593e-001  3.4871795e-001  3.7118437e-001  3.9218559e-001  4.1172161e-001  4.2783883e-001  4.4151404e-001  4.5372405e-001  4.6788767e-001  4.8058608e-001  4.9328449e-001  5.0500611e-001  5.1575092e-001  5.2649573e-001  5.3382173e-001  5.4114774e-001  5.4847375e-001  5.5482295e-001  5.5775336e-001  5.5921856e-001  5.6410256e-001  5.6752137e-001  5.6898657e-001  5.7240537e-001  5.7631258e-001  5.8021978e-001  5.8315018e-001  5.8559219e-001  5.8998779e-001  5.9584860e-001  5.9877900e-001  6.0073260e-001  6.0219780e-001  6.0610501e-001  6.0854701e-001  6.1294261e-001  6.1489621e-001  6.1684982e-001  6.1636142e-001  6.1782662e-001  6.1831502e-001  6.1929182e-001  6.1929182e-001  6.2026862e-001  6.2124542e-001  6.2075702e-001  6.1831502e-001  6.1733822e-001  6.1636142e-001  6.1538462e-001  6.1489621e-001  6.1343101e-001  6.1294261e-001  6.1245421e-001  6.1391941e-001  6.1245421e-001  6.1001221e-001  6.0659341e-001  6.0805861e-001  6.0903541e-001  6.1147741e-001  6.1489621e-001  6.1636142e-001  6.1684982e-001  6.1929182e-001  6.2026862e-001  6.2075702e-001  6.1831502e-001  6.1636142e-001  6.1440781e-001  6.1245421e-001  6.0952381e-001  6.0659341e-001  5.9975580e-001  5.9242979e-001  5.9145299e-001  5.8608059e-001  5.8119658e-001  5.7777778e-001  5.7094017e-001  5.6410256e-001  5.5970696e-001  5.5628816e-001  5.5384615e-001  5.5140415e-001  5.5140415e-001  5.4945055e-001  5.4896215e-001  5.4554335e-001  5.4505495e-001  5.4358974e-001  5.4358974e-001  5.4163614e-001  5.4065934e-001  5.3968254e-001  5.3772894e-001  5.3675214e-001  5.3675214e-001  5.3577534e-001  5.3577534e-001  5.3479853e-001  5.3382173e-001  5.3284493e-001  5.3333333e-001  5.3431013e-001  5.3479853e-001  5.3724054e-001  5.3479853e-001  5.3186813e-001  5.2698413e-001  5.2210012e-001  5.1916972e-001  5.1379731e-001  5.0402930e-001  4.9377289e-001  4.8644689e-001  4.7960928e-001  4.7179487e-001  4.7130647e-001  4.7277167e-001  4.7179487e-001  4.6544567e-001  4.5030525e-001  4.2930403e-001  4.1465201e-001  4.0634921e-001  3.9316239e-001  3.6923077e-001  3.4481074e-001  3.2820513e-001  3.2136752e-001  3.2967033e-001  3.3797314e-001  3.4188034e-001  3.5409035e-001  3.7460317e-001  3.9218559e-001  4.0781441e-001  4.2051282e-001  4.3369963e-001  4.4444444e-001  4.5665446e-001  4.6691087e-001  4.7765568e-001  4.8742369e-001  4.9621490e-001  5.0793651e-001  5.1575092e-001  5.2161172e-001  5.2698413e-001  5.3235653e-001  5.3724054e-001  5.3870574e-001  5.4017094e-001  5.4505495e-001  5.4652015e-001  5.4847375e-001  5.5140415e-001  5.5482295e-001  5.5677656e-001  5.5824176e-001  5.6019536e-001  5.6312576e-001  5.6312576e-001  5.6410256e-001  5.6507937e-001  5.6654457e-001  5.6703297e-001  5.6605617e-001  5.6703297e-001  5.6898657e-001  5.6947497e-001  5.6800977e-001  5.6605617e-001  5.6459096e-001  5.6410256e-001  5.6410256e-001  5.6361416e-001  5.6117216e-001  5.6068376e-001  5.5726496e-001  5.5579976e-001  5.5384615e-001  5.5238095e-001  5.4896215e-001  5.4652015e-001  5.4407814e-001  5.4212454e-001  5.4114774e-001  5.4114774e-001  5.4017094e-001  5.3772894e-001  5.3431013e-001  5.3577534e-001  5.3675214e-001  5.3821734e-001  5.4163614e-001  5.4358974e-001  5.4554335e-001  5.4749695e-001  5.4847375e-001  5.4554335e-001  5.4261294e-001  5.3870574e-001  5.3821734e-001  5.3675214e-001  5.3333333e-001  5.2942613e-001  5.2307692e-001  5.1575092e-001  5.1330891e-001  5.0842491e-001  5.0451770e-001  5.0012210e-001  4.9084249e-001  4.8449328e-001  4.7960928e-001  4.7619048e-001  4.7326007e-001  4.7228327e-001  4.7130647e-001  4.6984127e-001  4.6886447e-001  4.6788767e-001  4.6593407e-001  4.6593407e-001  4.6495726e-001  4.6446886e-001  4.6349206e-001  4.6446886e-001  4.6398046e-001  4.6349206e-001  4.6300366e-001  4.6446886e-001  4.6446886e-001  4.6446886e-001  4.6349206e-001  4.6495726e-001  4.6398046e-001  4.6446886e-001  4.6886447e-001  4.7277167e-001  4.6837607e-001  4.6739927e-001  4.6642247e-001  4.6593407e-001  4.6398046e-001  4.5958486e-001  4.5128205e-001  4.4200244e-001  4.3858364e-001  4.3321123e-001  4.2979243e-001  4.2979243e-001  4.3321123e-001  4.3223443e-001  4.2588523e-001  4.0830281e-001  3.9169719e-001  3.8046398e-001  3.7509158e-001  3.6043956e-001  3.3699634e-001  3.1355311e-001  2.9841270e-001  2.9401709e-001  3.0476190e-001  3.1111111e-001  3.1404151e-001  3.2918193e-001  3.5067155e-001  3.6727717e-001  3.8192918e-001  3.9560440e-001  4.0781441e-001  4.1855922e-001  4.3125763e-001  4.4346764e-001  4.5518926e-001  4.6788767e-001  4.7765568e-001  4.8644689e-001  4.9230769e-001  5.0207570e-001  5.0842491e-001  5.1477411e-001  5.1770452e-001  5.1965812e-001  5.2112332e-001  5.2503053e-001  5.2796093e-001  5.2991453e-001  5.3186813e-001  5.3577534e-001  5.3724054e-001  5.3919414e-001  5.4163614e-001  5.4505495e-001  5.4798535e-001  5.4896215e-001  5.4945055e-001  5.4993895e-001  5.5140415e-001  5.5189255e-001  5.5335775e-001  5.5238095e-001  5.5286935e-001  5.5286935e-001  5.5238095e-001  5.5140415e-001  5.5042735e-001  5.4945055e-001  5.4945055e-001  5.4798535e-001  5.4554335e-001  5.4261294e-001  5.4065934e-001  5.3870574e-001  5.3626374e-001  5.3479853e-001  5.3235653e-001  5.3089133e-001  5.3089133e-001  5.2893773e-001  5.2844933e-001  5.2844933e-001  5.2503053e-001  5.2258852e-001  5.2258852e-001  5.2649573e-001  5.2991453e-001  5.3186813e-001  5.3284493e-001  5.3479853e-001  5.3528694e-001  5.3626374e-001  5.3431013e-001  5.3137973e-001  5.2698413e-001  5.2698413e-001  5.2454212e-001  5.2258852e-001  5.1526252e-001  5.0744811e-001  5.0354090e-001  5.0109890e-001  4.9474969e-001  4.9181929e-001  4.8547009e-001  4.7814408e-001  4.7423687e-001  4.6935287e-001  4.6642247e-001  4.6495726e-001  4.6446886e-001  4.6202686e-001  4.6007326e-001  4.5909646e-001  4.5860806e-001  4.5763126e-001  4.5665446e-001  4.5518926e-001  4.5714286e-001  4.5714286e-001  4.5665446e-001  4.5665446e-001  4.5665446e-001  4.5518926e-001  4.5665446e-001  4.5763126e-001  4.5811966e-001  4.5665446e-001  4.5714286e-001  4.5860806e-001  4.6007326e-001  4.6349206e-001  4.6056166e-001  4.5909646e-001  4.5860806e-001  4.5860806e-001  4.5763126e-001  4.5372405e-001  4.4297924e-001  4.3272283e-001  4.2588523e-001  4.2490842e-001  4.2148962e-001  4.2344322e-001  4.2539683e-001  4.2735043e-001  4.2197802e-001  4.0927961e-001  3.9120879e-001  3.7802198e-001  3.7020757e-001  3.5946276e-001  3.3748474e-001  3.1355311e-001  2.9401709e-001  2.8669109e-001  2.9597070e-001  3.0476190e-001  3.0720391e-001  3.1794872e-001  3.3894994e-001  3.5653236e-001  3.7313797e-001  3.8681319e-001  3.9951160e-001  4.1123321e-001  4.2539683e-001  4.3809524e-001  4.4884005e-001  4.5860806e-001  4.6935287e-001  4.8058608e-001  4.8888889e-001  4.9474969e-001  5.0256410e-001  5.0842491e-001  5.1282051e-001  5.1477411e-001  5.1623932e-001  5.1916972e-001  5.2258852e-001  5.2649573e-001  5.2844933e-001  5.3089133e-001  5.3284493e-001  5.3528694e-001  5.3724054e-001  5.3919414e-001  5.4065934e-001  5.4407814e-001  5.4456654e-001  5.4603175e-001  5.4700855e-001  5.4798535e-001  5.4700855e-001  5.4749695e-001  5.4749695e-001  5.4798535e-001  5.4700855e-001  5.4652015e-001  5.4603175e-001  5.4407814e-001  5.4310134e-001  5.4407814e-001  5.4358974e-001  5.4114774e-001  5.3919414e-001  5.3577534e-001  5.3333333e-001  5.3089133e-001  5.2942613e-001  5.2796093e-001  5.2747253e-001  5.2796093e-001  5.2698413e-001  5.2503053e-001  5.2112332e-001  5.2063492e-001  5.2307692e-001  5.2551893e-001  5.2893773e-001  5.3089133e-001  5.3333333e-001  5.3431013e-001  5.3577534e-001  5.3577534e-001  5.3382173e-001  5.3137973e-001  5.2893773e-001  5.2796093e-001  5.2649573e-001  5.2356532e-001  5.1770452e-001  5.0989011e-001  5.0549451e-001  5.0354090e-001  4.9621490e-001  4.9279609e-001  4.8595849e-001  4.8009768e-001  4.7374847e-001  4.7032967e-001  4.6837607e-001  4.6886447e-001  4.6544567e-001  4.6398046e-001  4.6153846e-001  4.6105006e-001  4.5958486e-001  4.6007326e-001  4.5909646e-001  4.5909646e-001  4.5860806e-001  4.5811966e-001  4.5860806e-001  4.5763126e-001  4.5665446e-001  4.5616606e-001  4.5567766e-001  4.5567766e-001  4.5714286e-001  4.5714286e-001  4.5909646e-001  4.5909646e-001  4.6202686e-001  4.6544567e-001  4.6446886e-001  4.6105006e-001  4.5763126e-001  4.5616606e-001  4.5567766e-001  4.5177045e-001  4.4102564e-001  4.2930403e-001  4.2442002e-001  4.2295482e-001  4.2002442e-001  4.2051282e-001  4.2148962e-001  4.2393162e-001  4.2197802e-001  4.1074481e-001  3.9169719e-001  3.7802198e-001  3.7069597e-001  3.6092796e-001  3.3846154e-001  3.1404151e-001  2.9401709e-001  2.8717949e-001  2.9597070e-001  3.0671551e-001  3.0818071e-001  3.1892552e-001  3.3797314e-001  3.5653236e-001  3.7264957e-001  3.8827839e-001  4.0097680e-001  4.1318681e-001  4.2637363e-001  4.4053724e-001  4.5128205e-001  4.6251526e-001  4.7326007e-001  4.8302808e-001  4.9181929e-001  4.9670330e-001  5.0305250e-001  5.1086691e-001  5.1623932e-001  5.1770452e-001  5.1965812e-001  5.2210012e-001  5.2503053e-001  5.2844933e-001  5.3089133e-001  5.3137973e-001  5.3431013e-001  5.3724054e-001  5.4017094e-001  5.4261294e-001  5.4554335e-001  5.4603175e-001  5.4700855e-001  5.4896215e-001  5.5042735e-001  5.4945055e-001  5.4945055e-001  5.5091575e-001  5.5091575e-001  5.5140415e-001  5.4945055e-001  5.4847375e-001  5.4993895e-001  5.5042735e-001  5.4798535e-001  5.4749695e-001  5.4505495e-001  5.4358974e-001  5.4114774e-001  5.4017094e-001  5.3724054e-001  5.3528694e-001  5.3284493e-001  5.3333333e-001  5.3137973e-001  5.3089133e-001  5.2844933e-001  5.2747253e-001  5.2551893e-001  5.2698413e-001  5.2796093e-001  5.3137973e-001  5.3382173e-001  5.3479853e-001  5.3821734e-001  5.3919414e-001  5.3919414e-001  5.3919414e-001  5.3772894e-001  5.3382173e-001  5.3235653e-001  5.3137973e-001  5.2893773e-001  5.2503053e-001  5.1868132e-001  5.1086691e-001  5.0744811e-001  5.0354090e-001  5.0061050e-001  4.9426129e-001  4.8644689e-001  4.7960928e-001  4.7423687e-001  4.7179487e-001  4.7179487e-001  4.7032967e-001  4.6886447e-001  4.6837607e-001  4.6642247e-001  4.6642247e-001  4.6544567e-001  4.6446886e-001  4.6251526e-001  4.6251526e-001  4.6056166e-001  4.6153846e-001  4.6251526e-001  4.6398046e-001  4.6300366e-001  4.6300366e-001  4.6153846e-001  4.6251526e-001  4.6300366e-001  4.6398046e-001  4.6398046e-001  4.6495726e-001  4.6788767e-001  4.7081807e-001  4.6642247e-001  4.6544567e-001  4.6153846e-001  4.6056166e-001  4.6007326e-001  4.5372405e-001  4.4249084e-001  4.3321123e-001  4.3028083e-001  4.2832723e-001  4.2832723e-001  4.2979243e-001  4.3125763e-001  4.3174603e-001  4.2735043e-001  4.1172161e-001  3.9316239e-001  3.8192918e-001  3.7557998e-001  3.6239316e-001  3.3992674e-001  3.1550672e-001  2.9841270e-001  2.9548230e-001  3.0720391e-001  3.1404151e-001  3.1648352e-001  3.2918193e-001  3.4822955e-001  3.6678877e-001  3.8192918e-001  3.9560440e-001  4.0537241e-001  4.1514042e-001  4.2832723e-001  4.4249084e-001  4.5372405e-001  4.6593407e-001  4.7814408e-001  4.8986569e-001  4.9621490e-001  5.0354090e-001  5.0989011e-001  5.1575092e-001  5.1916972e-001  5.2210012e-001  5.2454212e-001  5.2796093e-001  5.2942613e-001  5.3137973e-001  5.3431013e-001  5.3724054e-001  5.3870574e-001  5.4212454e-001  5.4407814e-001  5.4652015e-001  5.4896215e-001  5.4993895e-001  5.5042735e-001  5.5286935e-001  5.5433455e-001  5.5384615e-001  5.5384615e-001  5.5482295e-001  5.5579976e-001  5.5579976e-001  5.5482295e-001  5.5482295e-001  5.5384615e-001  5.5286935e-001  5.5189255e-001  5.5042735e-001  5.4847375e-001  5.4652015e-001  5.4554335e-001  5.4358974e-001  5.4114774e-001  5.3919414e-001  5.3772894e-001  5.3821734e-001  5.3724054e-001  5.3626374e-001  5.3528694e-001  5.3333333e-001  5.3235653e-001  5.3333333e-001  5.3382173e-001  5.3870574e-001  5.4212454e-001  5.4456654e-001  5.4505495e-001  5.4700855e-001  5.4700855e-001  5.4700855e-001  5.4261294e-001  5.3919414e-001  5.3821734e-001  5.3724054e-001  5.3431013e-001  5.2893773e-001  5.2063492e-001  5.1623932e-001  5.1379731e-001  5.0940171e-001  5.0549451e-001  4.9768010e-001  4.9133089e-001  4.8693529e-001  4.8205128e-001  4.7912088e-001  4.7863248e-001  4.7667888e-001  4.7570208e-001  4.7423687e-001  4.7277167e-001  4.7130647e-001  4.7130647e-001  4.7032967e-001  4.7032967e-001  4.6886447e-001  4.6935287e-001  4.7032967e-001  4.6984127e-001  4.6886447e-001  4.6886447e-001  4.6886447e-001  4.6886447e-001  4.6935287e-001  4.7032967e-001  4.7081807e-001  4.7081807e-001  4.7326007e-001  4.7619048e-001  4.7570208e-001  4.7228327e-001  4.6984127e-001  4.6642247e-001  4.6642247e-001  4.6202686e-001  4.5177045e-001  4.4004884e-001  4.3467643e-001  4.3272283e-001  4.3076923e-001  4.3272283e-001  4.3467643e-001  4.3760684e-001  4.3711844e-001  4.2490842e-001  4.0586081e-001  3.9072039e-001  3.8339438e-001  3.7460317e-001  3.5506716e-001  3.3015873e-001  3.0915751e-001  3.0085470e-001  3.0769231e-001  3.1746032e-001  3.1941392e-001  3.2673993e-001  3.4481074e-001  3.6336996e-001  3.7851038e-001  3.9609280e-001  4.1025641e-001  4.2197802e-001  4.3565324e-001  4.5030525e-001  4.6105006e-001  4.7228327e-001  4.8253968e-001  4.9377289e-001  5.0207570e-001  5.0793651e-001  5.1428571e-001  5.1965812e-001  5.2405372e-001  5.2747253e-001  5.3089133e-001  5.3333333e-001  5.3626374e-001  5.3675214e-001  5.3968254e-001  5.4261294e-001  5.4652015e-001  5.4798535e-001  5.4896215e-001  5.4993895e-001  5.5384615e-001  5.5482295e-001  5.5677656e-001  5.5775336e-001  5.5873016e-001  5.5824176e-001  5.5824176e-001  5.5970696e-001  5.6019536e-001  5.5873016e-001  5.5921856e-001  5.5824176e-001  5.5824176e-001  5.5677656e-001  5.5531136e-001  5.5384615e-001  5.5189255e-001  5.5042735e-001  5.4798535e-001  5.4652015e-001  5.4505495e-001  5.4456654e-001  5.4261294e-001  5.4163614e-001  5.4065934e-001  5.4017094e-001  5.3919414e-001  5.3724054e-001  5.3479853e-001  5.3528694e-001  5.3675214e-001  5.4017094e-001  5.4310134e-001  5.4603175e-001  5.4798535e-001  5.4945055e-001  5.4945055e-001  5.4798535e-001  5.4603175e-001  5.4407814e-001  5.4310134e-001  5.4163614e-001  5.4017094e-001  5.3479853e-001  5.2698413e-001  5.2063492e-001  5.1721612e-001  5.1135531e-001  5.0989011e-001  5.0549451e-001  4.9768010e-001  4.9230769e-001  4.8888889e-001  4.8449328e-001  4.8253968e-001  4.7960928e-001  4.7960928e-001  4.7863248e-001  4.7814408e-001  4.7716728e-001  4.7619048e-001  4.7423687e-001  4.7374847e-001  4.7374847e-001  4.7374847e-001  4.7326007e-001  4.7277167e-001  4.7277167e-001  4.7228327e-001  4.7179487e-001  4.7179487e-001  4.7228327e-001  4.7228327e-001  4.7228327e-001  4.7423687e-001  4.7570208e-001  4.7912088e-001  4.8400488e-001  4.8156288e-001  4.8302808e-001  4.8449328e-001  4.8449328e-001  4.8058608e-001  4.7374847e-001  4.6446886e-001  4.5421245e-001  4.4981685e-001  4.4639805e-001  4.4395604e-001  4.4102564e-001  4.3956044e-001  4.3369963e-001  4.2246642e-001  4.0341880e-001  3.8778999e-001  3.7948718e-001  3.7557998e-001  3.6092796e-001  3.3992674e-001  3.1794872e-001  3.0378510e-001  3.0134310e-001  3.1159951e-001  3.1697192e-001  3.2234432e-001  3.3601954e-001  3.5457875e-001  3.7216117e-001  3.8730159e-001  3.9951160e-001  4.1074481e-001  4.2295482e-001  4.3760684e-001  4.4932845e-001  4.5958486e-001  4.6886447e-001  4.7814408e-001  4.8742369e-001  4.9133089e-001  4.9523810e-001  5.0256410e-001  5.0695971e-001  5.0695971e-001  5.0891331e-001  5.1086691e-001  5.1330891e-001  5.1428571e-001  5.1526252e-001  5.1526252e-001  5.1770452e-001  5.2014652e-001  5.2210012e-001  5.2307692e-001  5.2405372e-001  5.2405372e-001  5.2600733e-001  5.2698413e-001  5.2844933e-001  5.2942613e-001  5.2991453e-001  5.3040293e-001  5.2893773e-001  5.2942613e-001  5.2893773e-001  5.2844933e-001  5.2796093e-001  5.2747253e-001  5.2551893e-001  5.2405372e-001  5.2161172e-001  5.1965812e-001  5.1721612e-001  5.1526252e-001  5.1282051e-001  5.0940171e-001  5.0500611e-001  5.0549451e-001  5.0549451e-001  5.0598291e-001  5.0598291e-001  5.0598291e-001  5.0354090e-001  5.0354090e-001  5.0451770e-001  5.0940171e-001  5.1575092e-001  5.1721612e-001  5.1916972e-001  5.2014652e-001  5.2210012e-001  5.2210012e-001  5.2307692e-001  5.1965812e-001  5.1575092e-001  5.1623932e-001  5.1526252e-001  5.1037851e-001  5.0256410e-001  4.9426129e-001  4.9279609e-001  4.8840049e-001  4.8498168e-001  4.8253968e-001  4.7570208e-001  4.6886447e-001  4.6300366e-001  4.6105006e-001  4.5958486e-001  4.5958486e-001  4.5811966e-001  4.5665446e-001  4.5323565e-001  4.5372405e-001  4.5372405e-001  4.5567766e-001  4.5421245e-001  4.5421245e-001  4.5470085e-001  4.5567766e-001  4.5518926e-001  4.5665446e-001  4.5714286e-001  4.5714286e-001  4.5811966e-001  4.6056166e-001  4.6105006e-001  4.6398046e-001  4.6495726e-001  4.6691087e-001  4.6886447e-001  4.7228327e-001  4.6886447e-001  4.6886447e-001  4.6886447e-001  4.6984127e-001  4.6886447e-001  4.6300366e-001  4.5225885e-001  4.4200244e-001  4.3858364e-001  4.3516484e-001  4.3369963e-001  4.3223443e-001  4.3760684e-001  4.4151404e-001  4.3760684e-001  4.2051282e-001  3.9951160e-001  3.8730159e-001  3.8339438e-001  3.7411477e-001  3.5702076e-001  3.3846154e-001  3.2576313e-001  3.2673993e-001  3.4090354e-001  3.5360195e-001  3.6043956e-001  3.7509158e-001  3.9511600e-001  4.1367521e-001  4.2881563e-001  4.4493284e-001  4.5665446e-001  4.6593407e-001  4.7667888e-001  4.8791209e-001  4.9816850e-001  5.0989011e-001  5.1868132e-001  5.2991453e-001  5.3675214e-001  5.4310134e-001  5.4896215e-001  5.5433455e-001  5.5824176e-001  5.6117216e-001  5.6312576e-001  5.6654457e-001  5.6800977e-001  5.7094017e-001  5.7289377e-001  5.7582418e-001  5.7728938e-001  5.7875458e-001  5.8119658e-001  5.8168498e-001  5.8412698e-001  5.8559219e-001  5.8754579e-001  5.8852259e-001  5.8949939e-001  5.8852259e-001  5.8803419e-001  5.8852259e-001  5.8852259e-001  5.8803419e-001  5.8705739e-001  5.8608059e-001  5.8803419e-001  5.8852259e-001  5.8656899e-001  5.8510379e-001  5.8363858e-001  5.8119658e-001  5.8021978e-001  5.7924298e-001  5.7631258e-001  5.7533578e-001  5.7387057e-001  5.7387057e-001  5.7338217e-001  5.7387057e-001  5.7191697e-001  5.7045177e-001  5.7191697e-001  5.7387057e-001  5.7533578e-001  5.8021978e-001  5.8217338e-001  5.8412698e-001  5.8559219e-001  5.8803419e-001  5.8803419e-001  5.8656899e-001  5.8217338e-001  5.8168498e-001  5.8119658e-001  5.7875458e-001  5.7484737e-001  5.6947497e-001  5.6214896e-001  5.5921856e-001  5.5579976e-001  5.5189255e-001  5.4749695e-001  5.3968254e-001  5.3382173e-001  5.3040293e-001  5.2796093e-001  5.2454212e-001  5.2356532e-001  5.2258852e-001  5.2161172e-001  5.2063492e-001  5.2063492e-001  5.1868132e-001  5.1868132e-001  5.1916972e-001  5.2014652e-001  5.2014652e-001  5.2014652e-001  5.1916972e-001  5.1965812e-001  5.2014652e-001  5.2161172e-001  5.2161172e-001  5.2161172e-001  5.2210012e-001  5.2258852e-001  5.2454212e-001  5.2649573e-001  5.2893773e-001  5.2942613e-001  5.2649573e-001  5.2551893e-001  5.2698413e-001  5.2551893e-001  5.2307692e-001  5.1623932e-001  5.0598291e-001  4.9377289e-001  4.8937729e-001  4.8547009e-001  4.8205128e-001  4.8107448e-001  4.8547009e-001  4.8840049e-001  4.8547009e-001  4.7081807e-001  4.5177045e-001  4.3907204e-001  4.3174603e-001  4.2344322e-001  4.0732601e-001  3.8974359e-001  3.7606838e-001  3.7509158e-001  3.8730159e-001  4.0048840e-001  4.0781441e-001  4.2344322e-001  4.4249084e-001  4.6007326e-001  4.7570208e-001  4.8888889e-001  5.0012210e-001  5.1086691e-001  5.2161172e-001  5.3333333e-001  5.4456654e-001  5.5482295e-001  5.6459096e-001  5.7338217e-001  5.7924298e-001  5.8559219e-001  5.9194139e-001  5.9731380e-001  5.9975580e-001  6.0317460e-001  6.0659341e-001  6.0952381e-001  6.1294261e-001  6.1343101e-001  6.1587302e-001  6.1782662e-001  6.2075702e-001  6.2173382e-001  6.2319902e-001  6.2466422e-001  6.2710623e-001  6.2661783e-001  6.2710623e-001  6.2661783e-001  6.2857143e-001  6.2954823e-001  6.2954823e-001  6.3003663e-001  6.3101343e-001  6.3003663e-001  6.3003663e-001  6.2954823e-001  6.2954823e-001  6.2857143e-001  6.2759463e-001  6.2612943e-001  6.2466422e-001  6.2417582e-001  6.2319902e-001  6.2124542e-001  6.1880342e-001  6.1636142e-001  6.1587302e-001  6.1538462e-001  6.1440781e-001  6.1440781e-001  6.1294261e-001  6.0952381e-001  6.1098901e-001  6.1440781e-001  6.1489621e-001  6.2026862e-001  6.2271062e-001  6.2319902e-001  6.2368742e-001  6.2661783e-001  6.2661783e-001  6.2515263e-001  6.2319902e-001  6.2075702e-001  6.2026862e-001  6.1831502e-001  6.1538462e-001  6.0757021e-001  6.0122100e-001  5.9584860e-001  5.9340659e-001  5.8803419e-001  5.8559219e-001  5.7777778e-001  5.7142857e-001  5.6556777e-001  5.6117216e-001  5.5921856e-001  5.5921856e-001  5.5775336e-001  5.5677656e-001  5.5384615e-001  5.5384615e-001  5.5140415e-001  5.5140415e-001  5.5091575e-001  5.5042735e-001  5.4993895e-001  5.4847375e-001  5.4945055e-001  5.4896215e-001  5.4798535e-001  5.4945055e-001  5.4798535e-001  5.4847375e-001  5.5042735e-001  5.5042735e-001  5.5238095e-001  5.5189255e-001  5.5384615e-001  5.5628816e-001  5.5726496e-001  5.5482295e-001  5.5482295e-001  5.5482295e-001  5.5579976e-001  5.5238095e-001  5.4358974e-001  5.3333333e-001  5.2405372e-001  5.1916972e-001  5.1184371e-001  5.0940171e-001  5.1086691e-001  5.1526252e-001  5.1526252e-001  5.0598291e-001  4.8302808e-001  4.6886447e-001  4.6105006e-001  4.5714286e-001  4.4004884e-001  4.1807082e-001  4.0097680e-001  3.9560440e-001  4.0341880e-001  4.1904762e-001  4.2539683e-001  4.3614164e-001  4.5616606e-001  4.7667888e-001  4.9279609e-001  5.0989011e-001  5.2258852e-001  5.3235653e-001  5.4212454e-001  5.5238095e-001  5.6117216e-001  5.7045177e-001  5.8119658e-001  5.9145299e-001  5.9975580e-001  6.0512821e-001  6.1050061e-001  6.1489621e-001  6.1929182e-001  6.2124542e-001  6.2466422e-001  6.2661783e-001  6.2954823e-001  6.3052503e-001  6.3199023e-001  6.3443223e-001  6.3785104e-001  6.3980464e-001  6.4126984e-001  6.4273504e-001  6.4420024e-001  6.4566545e-001  6.4761905e-001  6.4859585e-001  6.4859585e-001  6.4859585e-001  6.4908425e-001  6.5103785e-001  6.5152625e-001  6.5006105e-001  6.4859585e-001  6.4859585e-001  6.4859585e-001  6.5006105e-001  6.4810745e-001  6.4664225e-001  6.4566545e-001  6.4517705e-001  6.4273504e-001  6.4029304e-001  6.3833944e-001  6.3833944e-001  6.3687424e-001  6.3785104e-001  6.3687424e-001  6.3687424e-001  6.3492063e-001  6.3492063e-001  6.3492063e-001  6.3736264e-001  6.4126984e-001  6.4420024e-001  6.4517705e-001  6.4664225e-001  6.5006105e-001  6.5054945e-001  6.4761905e-001  6.4420024e-001  6.4175824e-001  6.3736264e-001  6.3492063e-001  6.3247863e-001  6.2808303e-001  6.2075702e-001  6.1489621e-001  6.1098901e-001  6.0366300e-001  5.9975580e-001  5.9584860e-001  5.8803419e-001  5.8363858e-001  5.7924298e-001  5.7582418e-001  5.7338217e-001  5.7045177e-001  5.6703297e-001  5.6654457e-001  5.6556777e-001  5.6459096e-001  5.6410256e-001  5.6214896e-001  5.6117216e-001  5.6117216e-001  5.6166056e-001  5.5970696e-001  5.5873016e-001  5.5873016e-001  5.6019536e-001  5.5873016e-001  5.5970696e-001  5.6068376e-001  5.6263736e-001  5.6214896e-001  5.6410256e-001  5.6605617e-001  5.6898657e-001  5.6996337e-001  5.6556777e-001  5.6605617e-001  5.6898657e-001  5.7289377e-001  5.7582418e-001  5.7142857e-001  5.6166056e-001  5.4896215e-001  5.3919414e-001  5.2747253e-001  5.1916972e-001  5.1672772e-001  5.1916972e-001  5.1916972e-001  5.1086691e-001  4.9279609e-001  4.7619048e-001  4.6544567e-001  4.5909646e-001  4.4590965e-001  4.2344322e-001  4.0195360e-001  3.9072039e-001  3.9316239e-001  4.0683761e-001  4.1562882e-001  4.2197802e-001  4.3956044e-001  4.6300366e-001  4.8595849e-001  5.0598291e-001  5.2014652e-001  5.3284493e-001  5.4163614e-001  5.5335775e-001  5.6166056e-001  5.7045177e-001  5.8119658e-001  5.9389499e-001  6.0268620e-001  6.0854701e-001  6.1294261e-001  6.1782662e-001  6.2319902e-001  6.2710623e-001  6.2710623e-001  6.3101343e-001  6.3492063e-001  6.3833944e-001  6.3980464e-001  6.4175824e-001  6.4420024e-001  6.4810745e-001  6.5006105e-001  6.5250305e-001  6.5445665e-001  6.5445665e-001  6.5689866e-001  6.5982906e-001  6.6129426e-001  6.6324786e-001  6.6520147e-001  6.6471306e-001  6.6520147e-001  6.6520147e-001  6.6764347e-001  6.6813187e-001  6.6666667e-001  6.6715507e-001  6.6715507e-001  6.6422466e-001  6.6324786e-001  6.6275946e-001  6.6227106e-001  6.5982906e-001  6.5885226e-001  6.5836386e-001  6.5787546e-001  6.5689866e-001  6.5738706e-001  6.5689866e-001  6.5641026e-001  6.5836386e-001  6.5885226e-001  6.6178266e-001  6.6520147e-001  6.6520147e-001  6.6568987e-001  6.6764347e-001  6.6715507e-001  6.6568987e-001  6.6227106e-001  6.5787546e-001  6.5347985e-001  6.5103785e-001  6.4713065e-001  6.4224664e-001  6.3394383e-001  6.2759463e-001  6.2271062e-001  6.1831502e-001  6.1343101e-001  6.0952381e-001  6.0170940e-001  5.9584860e-001  5.9047619e-001  5.8754579e-001  5.8510379e-001  5.8217338e-001  5.8119658e-001  5.7924298e-001  5.7924298e-001  5.7728938e-001  5.7582418e-001  5.7435897e-001  5.7387057e-001  5.7289377e-001  5.7289377e-001  5.7094017e-001  5.6947497e-001  5.6849817e-001  5.6800977e-001  5.6703297e-001  5.6654457e-001  5.6703297e-001  5.6800977e-001  5.6849817e-001  5.6752137e-001  5.6703297e-001  5.6703297e-001  5.7094017e-001  5.6996337e-001  5.6605617e-001  5.6849817e-001  5.7289377e-001  5.7777778e-001  5.8070818e-001  5.7289377e-001  5.5824176e-001  5.4358974e-001  5.3431013e-001  5.1916972e-001  5.1233211e-001  5.1037851e-001  5.1233211e-001  5.0647131e-001  4.9230769e-001  4.7326007e-001  4.5958486e-001  4.5177045e-001  4.4590965e-001  4.2686203e-001  4.0341880e-001  3.8485958e-001  3.8095238e-001  3.9218559e-001  4.0586081e-001  4.1123321e-001  4.2197802e-001  4.4395604e-001  4.6544567e-001  4.8840049e-001  5.0744811e-001  5.2258852e-001  5.3479853e-001  5.4505495e-001  5.5482295e-001  5.6556777e-001  5.7533578e-001  5.8510379e-001  5.9536020e-001  6.0219780e-001  6.0659341e-001  6.1343101e-001  6.2026862e-001  6.2319902e-001  6.2466422e-001  6.2808303e-001  6.3052503e-001  6.3394383e-001  6.3638584e-001  6.3785104e-001  6.4078144e-001  6.4322344e-001  6.4468864e-001  6.4517705e-001  6.4859585e-001  6.4957265e-001  6.5152625e-001  6.5103785e-001  6.5347985e-001  6.5445665e-001  6.5689866e-001  6.5689866e-001  6.5738706e-001  6.5689866e-001  6.5836386e-001  6.5836386e-001  6.5738706e-001  6.5641026e-001  6.5738706e-001  6.5543346e-001  6.5396825e-001  6.5201465e-001  6.5006105e-001  6.4810745e-001  6.4615385e-001  6.4371184e-001  6.4078144e-001  6.3882784e-001  6.3785104e-001  6.3882784e-001  6.3785104e-001  6.3345543e-001  6.3003663e-001  6.3150183e-001  6.3199023e-001  6.3345543e-001  6.3443223e-001  6.3492063e-001  6.3443223e-001  6.3589744e-001  6.3589744e-001  6.3394383e-001  6.3003663e-001  6.2515263e-001  6.2319902e-001  6.2075702e-001  6.1636142e-001  6.1001221e-001  6.0073260e-001  5.9536020e-001  5.9291819e-001  5.8705739e-001  5.8315018e-001  5.7777778e-001  5.7142857e-001  5.6605617e-001  5.6214896e-001  5.5775336e-001  5.5531136e-001  5.5189255e-001  5.5042735e-001  5.4700855e-001  5.4554335e-001  5.4212454e-001  5.4212454e-001  5.4114774e-001  5.4114774e-001  5.3919414e-001  5.3919414e-001  5.3821734e-001  5.3821734e-001  5.3821734e-001  5.3772894e-001  5.3675214e-001  5.3626374e-001  5.3919414e-001  5.4114774e-001  5.4114774e-001  5.4114774e-001  5.4310134e-001  5.4358974e-001  5.4603175e-001  5.4261294e-001  5.4114774e-001  5.4212454e-001  5.4554335e-001  5.4603175e-001  5.4163614e-001  5.2991453e-001  5.1868132e-001  5.1330891e-001  5.0451770e-001  4.9572650e-001  4.9328449e-001  4.9426129e-001  4.9426129e-001  4.8595849e-001  4.6935287e-001  4.5323565e-001  4.4346764e-001  4.3907204e-001  4.2393162e-001  4.0048840e-001  3.7753358e-001  3.6630037e-001  3.6678877e-001  3.8046398e-001  3.8974359e-001  3.9853480e-001  4.1709402e-001  4.3760684e-001  4.5616606e-001  4.7081807e-001  4.8205128e-001  4.9279609e-001  5.0207570e-001  5.1282051e-001  5.2161172e-001  5.3040293e-001  5.3821734e-001  5.4896215e-001  5.5726496e-001  5.6214896e-001  5.6800977e-001  5.7435897e-001  5.8119658e-001  5.8412698e-001  5.8510379e-001  5.8656899e-001  5.8998779e-001  5.9194139e-001  5.9340659e-001  5.9487179e-001  5.9780220e-001  6.0073260e-001  6.0219780e-001  6.0463980e-001  6.0659341e-001  6.0708181e-001  6.0952381e-001  6.1098901e-001  6.1050061e-001  6.1147741e-001  6.1343101e-001  6.1391941e-001  6.1391941e-001  6.1343101e-001  6.1098901e-001  6.1001221e-001  6.0952381e-001  6.0854701e-001  6.0610501e-001  6.0415140e-001  6.0219780e-001  6.0073260e-001  5.9731380e-001  5.9584860e-001  5.9291819e-001  5.9096459e-001  5.8656899e-001  5.8315018e-001  5.8070818e-001  5.8021978e-001  5.7826618e-001  5.7728938e-001  5.7387057e-001  5.6996337e-001  5.6752137e-001  5.6849817e-001  5.6947497e-001  5.7240537e-001  5.7289377e-001  5.7484737e-001  5.7631258e-001  5.7728938e-001  5.7728938e-001  5.7435897e-001  5.6996337e-001  5.6605617e-001  5.6556777e-001  5.5970696e-001  5.5433455e-001  5.4798535e-001  5.4017094e-001  5.3479853e-001  5.2942613e-001  5.2356532e-001  5.1916972e-001  5.1037851e-001  5.0207570e-001  4.9426129e-001  4.8986569e-001  4.8693529e-001  4.8498168e-001  4.8156288e-001  4.7863248e-001  4.7570208e-001  4.7423687e-001  4.7326007e-001  4.7032967e-001  4.6886447e-001  4.6691087e-001  4.6593407e-001  4.6446886e-001  4.6398046e-001  4.6202686e-001  4.6105006e-001  4.5958486e-001  4.5909646e-001  4.5811966e-001  4.5958486e-001  4.5860806e-001  4.6105006e-001  4.6153846e-001  4.6398046e-001  4.6544567e-001  4.6300366e-001  4.6251526e-001  4.6349206e-001  4.6544567e-001  4.6691087e-001  4.6300366e-001  4.5372405e-001  4.4395604e-001  4.3956044e-001  4.3321123e-001  4.2588523e-001  4.2442002e-001  4.2588523e-001  4.2686203e-001  4.2051282e-001  4.0537241e-001  3.8632479e-001  3.7606838e-001  3.7020757e-001  3.5946276e-001  3.3894994e-001  3.1843712e-001  3.0329670e-001  3.0085470e-001  3.1306471e-001  3.2234432e-001  3.2625153e-001  3.4041514e-001  3.5848596e-001  3.7411477e-001  3.8778999e-001  4.0000000e-001  4.1025641e-001  4.1953602e-001  4.3272283e-001  4.4297924e-001  4.5225885e-001  4.6056166e-001  4.7081807e-001  4.7960928e-001  4.8644689e-001  4.9133089e-001  4.9816850e-001  5.0256410e-001  5.0647131e-001  5.0940171e-001  5.1330891e-001  5.1575092e-001  5.1916972e-001  5.1965812e-001  5.2161172e-001  5.2307692e-001  5.2551893e-001  5.2796093e-001  5.3089133e-001  5.3333333e-001  5.3431013e-001  5.3479853e-001  5.3577534e-001  5.3919414e-001  5.4163614e-001  5.4261294e-001  5.4261294e-001  5.4310134e-001  5.4212454e-001  5.4212454e-001  5.4212454e-001  5.4212454e-001  5.4114774e-001  5.4017094e-001  5.3821734e-001  5.3626374e-001  5.3577534e-001  5.3479853e-001  5.3333333e-001  5.3137973e-001  5.2844933e-001  5.2600733e-001  5.2454212e-001  5.2258852e-001  5.2161172e-001  5.2210012e-001  5.2063492e-001  5.1916972e-001  5.1623932e-001  5.1428571e-001  5.1330891e-001  5.1379731e-001  5.2014652e-001  5.2356532e-001  5.2551893e-001  5.2747253e-001  5.2991453e-001  5.2893773e-001  5.2844933e-001  5.2551893e-001  5.2258852e-001  5.2014652e-001  5.2063492e-001  5.1868132e-001  5.1428571e-001  5.0500611e-001  5.0012210e-001  4.9523810e-001  4.9133089e-001  4.8840049e-001  4.8253968e-001  4.7423687e-001  4.6886447e-001  4.6495726e-001  4.6202686e-001  4.6105006e-001  4.5958486e-001  4.5909646e-001  4.5665446e-001  4.5518926e-001  4.5421245e-001  4.5421245e-001  4.5323565e-001  4.5323565e-001  4.5225885e-001  4.5225885e-001  4.5079365e-001  4.5128205e-001  4.5030525e-001  4.4981685e-001  4.4981685e-001  4.4981685e-001  4.5079365e-001  4.5079365e-001  4.5128205e-001  4.5274725e-001  4.5372405e-001  4.5714286e-001  4.5860806e-001  4.5567766e-001  4.5518926e-001  4.5421245e-001  4.5616606e-001  4.5323565e-001  4.4493284e-001  4.3467643e-001  4.2783883e-001  4.2344322e-001  4.1855922e-001  4.1611722e-001  4.1709402e-001  4.1855922e-001  4.1758242e-001  4.0634921e-001  3.8876679e-001  3.7264957e-001  3.6385836e-001  3.5750916e-001  3.4139194e-001  3.1941392e-001  3.0036630e-001  2.9255189e-001  2.9841270e-001  3.1208791e-001  3.1599512e-001  3.2380952e-001  3.4139194e-001  3.6043956e-001  3.7655678e-001  3.9023199e-001  4.0244200e-001  4.1465201e-001  4.2588523e-001  4.3956044e-001  4.5128205e-001  4.6349206e-001  4.7277167e-001  4.8351648e-001  4.9181929e-001  4.9768010e-001  5.0354090e-001  5.0989011e-001  5.1428571e-001  5.1770452e-001  5.2014652e-001  5.2307692e-001  5.2551893e-001  5.2698413e-001  5.2942613e-001  5.3137973e-001  5.3431013e-001  5.3528694e-001  5.3870574e-001  5.4065934e-001  5.4358974e-001  5.4456654e-001  5.4554335e-001  5.4554335e-001  5.4798535e-001  5.4896215e-001  5.5042735e-001  5.4993895e-001  5.5091575e-001  5.5091575e-001  5.5140415e-001  5.5189255e-001  5.5335775e-001  5.5335775e-001  5.5238095e-001  5.5042735e-001  5.4993895e-001  5.4896215e-001  5.4700855e-001  5.4652015e-001  5.4310134e-001  5.4017094e-001  5.3821734e-001  5.3724054e-001  5.3577534e-001  5.3528694e-001  5.3284493e-001  5.3137973e-001  5.2942613e-001  5.2844933e-001  5.2893773e-001  5.2991453e-001  5.3235653e-001  5.3577534e-001  5.3821734e-001  5.4163614e-001  5.4310134e-001  5.4261294e-001  5.4261294e-001  5.4017094e-001  5.3675214e-001  5.3528694e-001  5.3431013e-001  5.3089133e-001  5.2747253e-001  5.1916972e-001  5.1330891e-001  5.0891331e-001  5.0500611e-001  5.0061050e-001  4.9426129e-001  4.8693529e-001  4.8253968e-001  4.7765568e-001  4.7374847e-001  4.7130647e-001  4.7130647e-001  4.6984127e-001  4.6935287e-001  4.6788767e-001  4.6739927e-001  4.6642247e-001  4.6642247e-001  4.6544567e-001  4.6495726e-001  4.6398046e-001  4.6446886e-001  4.6349206e-001  4.6251526e-001  4.6349206e-001  4.6300366e-001  4.6202686e-001  4.6153846e-001  4.6349206e-001  4.6251526e-001  4.6349206e-001  4.6495726e-001  4.6886447e-001  4.7130647e-001  4.6886447e-001  4.6642247e-001  4.6300366e-001  4.6105006e-001  4.5860806e-001  4.5225885e-001  4.4151404e-001  4.3125763e-001  4.2832723e-001  4.2588523e-001  4.2393162e-001  4.2295482e-001  4.2442002e-001  4.2539683e-001  4.1807082e-001  4.0048840e-001  3.8388278e-001  3.7411477e-001  3.6874237e-001  3.5750916e-001  3.3406593e-001  3.1208791e-001  3.0036630e-001  3.0183150e-001  3.1355311e-001  3.2039072e-001  3.2429792e-001  3.3943834e-001  3.5750916e-001  3.7460317e-001  3.8974359e-001  4.0390720e-001  4.1514042e-001  4.2832723e-001  4.4395604e-001  4.5665446e-001  4.6837607e-001  4.8156288e-001  4.9328449e-001  5.0305250e-001  5.1037851e-001  5.1477411e-001  5.1965812e-001  5.2551893e-001  5.2991453e-001  5.3284493e-001  5.3528694e-001  5.3821734e-001  5.4065934e-001  5.4261294e-001  5.4554335e-001  5.4847375e-001  5.5042735e-001  5.5286935e-001  5.5677656e-001  5.5970696e-001  5.6117216e-001  5.6263736e-001  5.6507937e-001  5.6703297e-001  5.6898657e-001  5.6898657e-001  5.6800977e-001  5.6849817e-001  5.6996337e-001  5.7191697e-001  5.7094017e-001  5.6996337e-001  5.6947497e-001  5.6947497e-001  5.6703297e-001  5.6654457e-001  5.6410256e-001  5.6312576e-001  5.6117216e-001  5.5873016e-001  5.5579976e-001  5.5482295e-001  5.5286935e-001  5.5238095e-001  5.5189255e-001  5.5042735e-001  5.4749695e-001  5.4554335e-001  5.4505495e-001  5.4603175e-001  5.4700855e-001  5.5238095e-001  5.5579976e-001  5.5579976e-001  5.5775336e-001  5.6019536e-001  5.6166056e-001  5.6166056e-001  5.6068376e-001  5.5726496e-001  5.5433455e-001  5.5335775e-001  5.5238095e-001  5.4798535e-001  5.3968254e-001  5.3186813e-001  5.2893773e-001  5.2454212e-001  5.2112332e-001  5.1721612e-001  5.0842491e-001  5.0207570e-001  4.9670330e-001  4.9377289e-001  4.9181929e-001  4.9084249e-001  4.9035409e-001  4.8840049e-001  4.8595849e-001  4.8547009e-001  4.8400488e-001  4.8449328e-001  4.8449328e-001  4.8547009e-001  4.8351648e-001  4.8302808e-001  4.8253968e-001  4.8253968e-001  4.8156288e-001  4.8351648e-001  4.8302808e-001  4.8449328e-001  4.8400488e-001  4.8400488e-001  4.8547009e-001  4.8595849e-001  4.8791209e-001  4.9230769e-001  4.8840049e-001  4.8547009e-001  4.8058608e-001  4.7716728e-001  4.7326007e-001  4.6739927e-001  4.5714286e-001  4.4688645e-001  4.4200244e-001  4.3956044e-001  4.3907204e-001  4.3956044e-001  4.4151404e-001  4.4395604e-001  4.4200244e-001  4.2686203e-001  4.0879121e-001  3.9511600e-001  3.9072039e-001  3.8095238e-001  3.6141636e-001  3.4090354e-001  3.2625153e-001  3.2332112e-001  3.3455433e-001  3.4334554e-001  3.4676435e-001  3.6043956e-001  3.7948718e-001  3.9706960e-001  4.1269841e-001  4.2783883e-001  4.4151404e-001  4.5567766e-001  4.7081807e-001  4.8547009e-001  4.9670330e-001  5.0989011e-001  5.2112332e-001  5.3186813e-001  5.3724054e-001  5.4456654e-001  5.5189255e-001  5.5824176e-001  5.6166056e-001  5.6507937e-001  5.6849817e-001  5.7240537e-001  5.7435897e-001  5.7728938e-001  5.8021978e-001  5.8461538e-001  5.8803419e-001  5.9047619e-001  5.9438339e-001  5.9829060e-001  6.0170940e-001  6.0317460e-001  6.0463980e-001  6.0659341e-001  6.1098901e-001  6.1245421e-001  6.1294261e-001  6.1343101e-001  6.1489621e-001  6.1538462e-001  6.1489621e-001  6.1489621e-001  6.1587302e-001  6.1538462e-001  6.1538462e-001  6.1489621e-001  6.1343101e-001  6.1245421e-001  6.1196581e-001  6.1001221e-001  6.0757021e-001  6.0561661e-001  6.0415140e-001  6.0415140e-001  6.0317460e-001  6.0268620e-001  6.0170940e-001  6.0170940e-001  6.0073260e-001  6.0268620e-001  6.0415140e-001  6.0708181e-001  6.1147741e-001  6.1440781e-001  6.1489621e-001  6.1782662e-001  6.1929182e-001  6.2075702e-001  6.1929182e-001  6.1636142e-001  6.1489621e-001  6.1538462e-001  6.1343101e-001  6.1098901e-001  6.0463980e-001  5.9780220e-001  5.9340659e-001  5.9047619e-001  5.8656899e-001  5.8412698e-001  5.7875458e-001  5.7387057e-001  5.6849817e-001  5.6459096e-001  5.6361416e-001  5.6263736e-001  5.6166056e-001  5.6166056e-001  5.6214896e-001  5.6068376e-001  5.5970696e-001  5.5970696e-001  5.6019536e-001  5.5921856e-001  5.5873016e-001  5.5824176e-001  5.5824176e-001  5.5824176e-001  5.5873016e-001  5.5824176e-001  5.5921856e-001  5.5970696e-001  5.5970696e-001  5.6117216e-001  5.6166056e-001  5.6263736e-001  5.6312576e-001  5.6507937e-001  5.6263736e-001  5.5824176e-001  5.5238095e-001  5.4700855e-001  5.4261294e-001  5.3772894e-001  5.2600733e-001  5.1282051e-001  5.0549451e-001  5.0305250e-001  5.0012210e-001  5.0305250e-001  5.0744811e-001  5.1233211e-001  5.1086691e-001  5.0158730e-001  4.8156288e-001  4.6691087e-001  4.5909646e-001  4.5421245e-001  4.3760684e-001  4.1660562e-001  3.9951160e-001  3.9218559e-001  3.9853480e-001  4.1172161e-001  4.1855922e-001  4.2735043e-001  4.4590965e-001  4.6398046e-001  4.8058608e-001  4.9621490e-001  5.1282051e-001  5.2698413e-001  5.4163614e-001  5.5531136e-001  5.6849817e-001  5.8266178e-001  5.9487179e-001  6.0512821e-001  6.1245421e-001  6.1929182e-001  6.2515263e-001  6.3101343e-001  6.3345543e-001  6.3736264e-001  6.4224664e-001  6.4664225e-001  6.5006105e-001  6.5152625e-001  6.5396825e-001  6.5836386e-001  6.6080586e-001  6.6324786e-001  6.6520147e-001  6.7008547e-001  6.7301587e-001  6.7692308e-001  6.7838828e-001  6.7936508e-001  6.8131868e-001  6.8376068e-001  6.8376068e-001  6.8424908e-001  6.8376068e-001  6.8473748e-001  6.8376068e-001  6.8376068e-001  6.8278388e-001  6.8180708e-001  6.8034188e-001  6.7838828e-001  6.7545788e-001  6.7350427e-001  6.7155067e-001  6.6862027e-001  6.6617827e-001  6.6275946e-001  6.5885226e-001  6.5885226e-001  6.5787546e-001  6.5543346e-001  6.5396825e-001  6.5250305e-001  6.5103785e-001  6.5103785e-001  6.5250305e-001  6.5250305e-001  6.5543346e-001  6.5689866e-001  6.5885226e-001  6.5982906e-001  6.6031746e-001  6.5982906e-001  6.5689866e-001  6.5396825e-001  6.4957265e-001  6.4908425e-001  6.4566545e-001  6.4126984e-001  6.3443223e-001  6.2612943e-001  6.1929182e-001  6.1636142e-001  6.1196581e-001  6.1050061e-001  6.0268620e-001  5.9487179e-001  5.8901099e-001  5.8510379e-001  5.8217338e-001  5.8168498e-001  5.7924298e-001  5.7728938e-001  5.7435897e-001  5.7338217e-001  5.7142857e-001  5.7094017e-001  5.6996337e-001  5.6996337e-001  5.6849817e-001  5.6605617e-001  5.6556777e-001  5.6410256e-001  5.6361416e-001  5.6263736e-001  5.6263736e-001  5.6068376e-001  5.6019536e-001  5.6019536e-001  5.5970696e-001  5.5775336e-001  5.5628816e-001  5.5921856e-001  5.5873016e-001  5.5140415e-001  5.4554335e-001  5.3772894e-001  5.2991453e-001  5.2258852e-001  5.1184371e-001  4.9670330e-001  4.8644689e-001  4.8547009e-001  4.8498168e-001  4.8693529e-001  4.8986569e-001  4.9523810e-001  4.9426129e-001  4.8595849e-001  4.6788767e-001  4.5128205e-001  4.4053724e-001  4.3565324e-001  4.2148962e-001  4.0244200e-001  3.8095238e-001  3.7264957e-001  3.7557998e-001  3.8974359e-001  3.9609280e-001  4.0341880e-001  4.1855922e-001  4.3760684e-001  4.5372405e-001  4.6984127e-001  4.8351648e-001  5.0012210e-001  5.1428571e-001  5.2942613e-001  5.4212454e-001  5.5384615e-001  5.6410256e-001  5.7435897e-001  5.8412698e-001  5.9096459e-001  5.9731380e-001  6.0317460e-001  6.0708181e-001  6.1001221e-001  6.1343101e-001  6.1636142e-001  6.1978022e-001  6.2319902e-001  6.2515263e-001  6.2759463e-001  6.3003663e-001  6.3296703e-001  6.3638584e-001  6.3882784e-001  6.4224664e-001  6.4468864e-001  6.4615385e-001  6.4761905e-001  6.5054945e-001  6.5201465e-001  6.5250305e-001  6.5347985e-001  6.5201465e-001  6.5054945e-001  6.5054945e-001  6.5201465e-001  6.5054945e-001  6.5006105e-001  6.4957265e-001  6.4957265e-001  6.4615385e-001  6.4420024e-001  6.4126984e-001  6.3931624e-001  6.3540904e-001  6.3296703e-001  6.2905983e-001  6.2857143e-001  6.2759463e-001  6.2759463e-001  6.2612943e-001  6.2515263e-001  6.2222222e-001  6.2319902e-001  6.2515263e-001  6.2710623e-001  6.3052503e-001  6.3247863e-001  6.3247863e-001  6.3296703e-001  6.3443223e-001  6.3394383e-001  6.3199023e-001  6.2808303e-001  6.2515263e-001  6.2417582e-001  6.2271062e-001  6.1831502e-001  6.1196581e-001  6.0219780e-001  5.9633700e-001  5.9194139e-001  5.8705739e-001  5.8217338e-001  5.7777778e-001  5.7191697e-001  5.6605617e-001  5.6117216e-001  5.5775336e-001  5.5482295e-001  5.5433455e-001  5.5482295e-001  5.5189255e-001  5.4993895e-001  5.4847375e-001  5.4749695e-001  5.4554335e-001  5.4505495e-001  5.4310134e-001  5.4261294e-001  5.4163614e-001  5.4163614e-001  5.3968254e-001  5.3919414e-001  5.3724054e-001  5.3675214e-001  5.3626374e-001  5.3724054e-001  5.3577534e-001  5.3626374e-001  5.3528694e-001  5.3626374e-001  5.3382173e-001  5.2649573e-001  5.2014652e-001  5.1282051e-001  5.0598291e-001  4.9816850e-001  4.8742369e-001  4.7277167e-001  4.6446886e-001  4.6153846e-001  4.6007326e-001  4.6251526e-001  4.6691087e-001  4.7228327e-001  4.7423687e-001  4.6593407e-001  4.4884005e-001  4.3125763e-001  4.2002442e-001  4.1465201e-001  4.0146520e-001  3.8046398e-001  3.6092796e-001  3.5115995e-001  3.5311355e-001  3.6825397e-001  3.7606838e-001  3.8144078e-001  3.9609280e-001  4.1514042e-001  4.3174603e-001  4.4590965e-001  4.6153846e-001  4.7765568e-001  4.8937729e-001  5.0451770e-001  5.1770452e-001  5.3089133e-001  5.4114774e-001  5.5286935e-001  5.6166056e-001  5.6947497e-001  5.7435897e-001  5.8070818e-001  5.8559219e-001  5.8949939e-001  5.9145299e-001  5.9633700e-001  5.9975580e-001  6.0170940e-001  6.0317460e-001  6.0757021e-001  6.1147741e-001  6.1391941e-001  6.1538462e-001  6.1831502e-001  6.2124542e-001  6.2417582e-001  6.2661783e-001  6.2759463e-001  6.2759463e-001  6.2954823e-001  6.3199023e-001  6.3247863e-001  6.3247863e-001  6.3199023e-001  6.3199023e-001  6.3101343e-001  6.3101343e-001  6.3003663e-001  6.2808303e-001  6.2661783e-001  6.2515263e-001  6.2368742e-001  6.2222222e-001  6.1929182e-001  6.1684982e-001  6.1343101e-001  6.1050061e-001  6.0805861e-001  6.0659341e-001  6.0561661e-001  6.0561661e-001  6.0610501e-001  6.0317460e-001  6.0170940e-001  6.0317460e-001  6.0463980e-001  6.0610501e-001  6.1050061e-001  6.1245421e-001  6.1440781e-001  6.1440781e-001  6.1391941e-001  6.1196581e-001  6.0952381e-001  6.0561661e-001  6.0463980e-001  6.0366300e-001  6.0170940e-001  5.9682540e-001  5.8949939e-001  5.8119658e-001  5.7631258e-001  5.7191697e-001  5.6898657e-001  5.6459096e-001  5.5579976e-001  5.5091575e-001  5.4603175e-001  5.4212454e-001  5.3919414e-001  5.3772894e-001  5.3675214e-001  5.3626374e-001  5.3333333e-001  5.3284493e-001  5.3235653e-001  5.3089133e-001  5.2893773e-001  5.2893773e-001  5.2698413e-001  5.2503053e-001  5.2454212e-001  5.2356532e-001  5.2356532e-001  5.2405372e-001  5.2405372e-001  5.2307692e-001  5.2210012e-001  5.2161172e-001  5.2161172e-001  5.2112332e-001  5.2356532e-001  5.2161172e-001  5.1575092e-001  5.0842491e-001  5.0158730e-001  4.9377289e-001  4.8742369e-001  4.7716728e-001  4.6495726e-001  4.5323565e-001  4.5079365e-001  4.4981685e-001  4.5177045e-001  4.5421245e-001  4.5958486e-001  4.6251526e-001  4.5860806e-001  4.4249084e-001  4.2393162e-001  4.1172161e-001  4.0683761e-001  3.9658120e-001  3.7655678e-001  3.5555556e-001  3.4285714e-001  3.4334554e-001  3.5555556e-001  3.6678877e-001  3.7216117e-001  3.8583639e-001  4.0195360e-001  4.1807082e-001  4.3418803e-001  4.4932845e-001  4.6398046e-001  4.7814408e-001  4.9279609e-001  5.0842491e-001  5.2014652e-001  5.3235653e-001  5.4358974e-001  5.5286935e-001  5.5921856e-001  5.6654457e-001  5.7435897e-001  5.7973138e-001  5.8412698e-001  5.8559219e-001  5.8656899e-001  5.8901099e-001  5.9487179e-001  5.9877900e-001  6.0170940e-001  6.0463980e-001  6.0805861e-001  6.1001221e-001  6.1294261e-001  6.1587302e-001  6.1782662e-001  6.1880342e-001  6.2173382e-001  6.2319902e-001  6.2466422e-001  6.2417582e-001  6.2515263e-001  6.2515263e-001  6.2661783e-001  6.2515263e-001  6.2466422e-001  6.2417582e-001  6.2368742e-001  6.2319902e-001  6.2075702e-001  6.1880342e-001  6.1831502e-001  6.1636142e-001  6.1343101e-001  6.1050061e-001  6.0805861e-001  6.0561661e-001  6.0268620e-001  6.0219780e-001  6.0073260e-001  6.0073260e-001  5.9975580e-001  5.9829060e-001  5.9536020e-001  5.9633700e-001  5.9829060e-001  6.0024420e-001  6.0415140e-001  6.0659341e-001  6.0805861e-001  6.0952381e-001  6.1050061e-001  6.1001221e-001  6.0805861e-001  6.0463980e-001  6.0170940e-001  6.0024420e-001  5.9926740e-001  5.9438339e-001  5.8803419e-001  5.8070818e-001  5.7680098e-001  5.7191697e-001  5.6800977e-001  5.6459096e-001  5.5775336e-001  5.5042735e-001  5.4505495e-001  5.4114774e-001  5.3919414e-001  5.3675214e-001  5.3626374e-001  5.3479853e-001  5.3284493e-001  5.3186813e-001  5.3137973e-001  5.3089133e-001  5.2942613e-001  5.2893773e-001  5.2796093e-001  5.2649573e-001  5.2698413e-001  5.2600733e-001  5.2356532e-001  5.2210012e-001  5.2258852e-001  5.2356532e-001  5.2551893e-001  5.2600733e-001  5.2551893e-001  5.2405372e-001  5.2454212e-001  5.2893773e-001  5.2698413e-001  5.2014652e-001  5.1330891e-001  5.0793651e-001  5.0305250e-001  4.9572650e-001  4.8595849e-001  4.7326007e-001  4.6544567e-001  4.6300366e-001  4.6056166e-001  4.6153846e-001  4.6446886e-001  4.6886447e-001  4.7277167e-001  4.6398046e-001  4.4542125e-001  4.3028083e-001  4.2344322e-001  4.1709402e-001  4.0146520e-001  3.8046398e-001  3.6239316e-001  3.5213675e-001  3.5848596e-001  3.7313797e-001  3.7851038e-001  3.8485958e-001  4.0146520e-001  4.1855922e-001  4.3418803e-001  4.4737485e-001  4.6202686e-001  4.7667888e-001  4.9133089e-001  5.0793651e-001  5.2063492e-001  5.3186813e-001  5.4310134e-001  5.5482295e-001  5.6361416e-001  5.7094017e-001  5.7777778e-001  5.8412698e-001  5.8901099e-001  5.9242979e-001  5.9389499e-001  5.9731380e-001  6.0073260e-001  6.0268620e-001  6.0512821e-001  6.0952381e-001  6.1245421e-001  6.1538462e-001  6.1733822e-001  6.1929182e-001  6.2173382e-001  6.2417582e-001  6.2612943e-001  6.2759463e-001  6.2905983e-001  6.2905983e-001  6.2954823e-001  6.3101343e-001  6.3247863e-001  6.3199023e-001  6.3101343e-001  6.3003663e-001  6.3150183e-001  6.2905983e-001  6.2564103e-001  6.2466422e-001  6.2612943e-001  6.2417582e-001  6.2368742e-001  6.2124542e-001  6.1831502e-001  6.1391941e-001  6.1440781e-001  6.1587302e-001  6.1538462e-001  6.1343101e-001  6.1343101e-001  6.1050061e-001  6.1050061e-001  6.1294261e-001  6.1733822e-001  6.2026862e-001  6.1978022e-001  6.2173382e-001  6.2319902e-001  6.2319902e-001  6.2124542e-001  6.1929182e-001  6.1489621e-001  6.1147741e-001  6.1001221e-001  6.0659341e-001  6.0122100e-001  5.9438339e-001  5.8656899e-001  5.8217338e-001  5.7631258e-001  5.7191697e-001  5.6800977e-001  5.6117216e-001  5.5531136e-001  5.5189255e-001  5.4847375e-001  5.4505495e-001  5.4212454e-001  5.4017094e-001  5.4065934e-001  5.4017094e-001  5.4065934e-001  5.3968254e-001  5.3821734e-001  5.3626374e-001  5.3724054e-001  5.3577534e-001  5.3528694e-001  5.3333333e-001  5.3284493e-001  5.3284493e-001  5.3333333e-001  5.3382173e-001  5.3431013e-001  5.3186813e-001  5.3137973e-001  5.3235653e-001  5.3577534e-001  5.3724054e-001  5.4261294e-001  5.4358974e-001  5.3968254e-001  5.3577534e-001  5.3528694e-001  5.3772894e-001  5.3821734e-001  5.3333333e-001  5.1916972e-001  5.0598291e-001  4.9768010e-001  4.9133089e-001  4.8840049e-001  4.8937729e-001  4.9328449e-001  4.9426129e-001  4.8449328e-001  4.6642247e-001  4.5323565e-001  4.4835165e-001  4.4444444e-001  4.2881563e-001  4.0683761e-001  3.8583639e-001  3.7655678e-001  3.8192918e-001  3.9072039e-001  3.8974359e-001  3.9413919e-001  4.1221001e-001  4.3272283e-001  4.4884005e-001  4.6495726e-001  4.7912088e-001  4.9181929e-001  5.0744811e-001  5.2405372e-001  5.3675214e-001  5.4847375e-001  5.5873016e-001  5.7094017e-001  5.7875458e-001  5.8510379e-001  5.9194139e-001  6.0024420e-001  6.0463980e-001  6.0854701e-001  6.1098901e-001  6.1440781e-001  6.1636142e-001  6.1929182e-001  6.2173382e-001  6.2319902e-001  6.2564103e-001  6.2905983e-001  6.3101343e-001  6.3296703e-001  6.3687424e-001  6.3638584e-001  6.3687424e-001  6.3931624e-001  6.4175824e-001  6.4126984e-001  6.4175824e-001  6.4224664e-001  6.4224664e-001  6.4273504e-001  6.4273504e-001  6.4224664e-001  6.4371184e-001  6.4224664e-001  6.4078144e-001  6.3931624e-001  6.3785104e-001  6.3540904e-001  6.3345543e-001  6.3296703e-001  6.3150183e-001  6.3150183e-001  6.3150183e-001  6.3101343e-001  6.3052503e-001  6.3003663e-001  6.2905983e-001  6.3247863e-001  6.3394383e-001  6.3931624e-001  6.4126984e-001  6.4078144e-001  6.4126984e-001  6.4468864e-001  6.4566545e-001  6.4322344e-001  6.3882784e-001  6.3394383e-001  6.3052503e-001  6.2857143e-001  6.2466422e-001  6.2026862e-001  6.1245421e-001  6.0610501e-001  6.0122100e-001  5.9487179e-001  5.8998779e-001  5.8412698e-001  5.7728938e-001  5.7240537e-001  5.6898657e-001  5.6410256e-001  5.6166056e-001  5.6117216e-001  5.5873016e-001  5.5677656e-001  5.5628816e-001  5.5482295e-001  5.5482295e-001  5.5433455e-001  5.5335775e-001  5.5238095e-001  5.5238095e-001  5.5189255e-001  5.5091575e-001  5.5091575e-001  5.5042735e-001  5.4896215e-001  5.4896215e-001  5.4896215e-001  5.4896215e-001  5.4896215e-001  5.4896215e-001  5.4896215e-001  5.5140415e-001  5.5873016e-001  5.5921856e-001  5.5628816e-001  5.5531136e-001  5.5628816e-001  5.5726496e-001  5.5628816e-001  5.4798535e-001  5.3431013e-001  5.1965812e-001  5.1086691e-001  5.0012210e-001  4.9572650e-001  4.9719170e-001  5.0402930e-001  5.0354090e-001  4.9035409e-001  4.7081807e-001  4.5860806e-001  4.5323565e-001  4.4884005e-001  4.3174603e-001  4.0830281e-001  3.8778999e-001  3.7753358e-001  3.8241758e-001  3.8974359e-001  3.8925519e-001  3.9560440e-001  4.1416361e-001  4.3565324e-001  4.5421245e-001  4.7032967e-001  4.8547009e-001  4.9768010e-001  5.1135531e-001  5.2551893e-001  5.3821734e-001  5.4798535e-001  5.5824176e-001  5.7045177e-001  5.8021978e-001  5.8656899e-001  5.9194139e-001  5.9877900e-001  6.0366300e-001  6.0463980e-001  6.0757021e-001  6.1147741e-001  6.1489621e-001  6.1733822e-001  6.1880342e-001  6.2124542e-001  6.2417582e-001  6.2759463e-001  6.2857143e-001  6.3150183e-001  6.3345543e-001  6.3540904e-001  6.3687424e-001  6.3931624e-001  6.4029304e-001  6.4126984e-001  6.4029304e-001  6.4273504e-001  6.4420024e-001  6.4371184e-001  6.4224664e-001  6.4371184e-001  6.4371184e-001  6.4224664e-001  6.4224664e-001  6.4126984e-001  6.3687424e-001  6.3492063e-001  6.3492063e-001  6.3150183e-001  6.2857143e-001  6.2710623e-001  6.2612943e-001  6.2466422e-001  6.2319902e-001  6.2319902e-001  6.2222222e-001  6.1880342e-001  6.1831502e-001  6.1880342e-001  6.2075702e-001  6.2319902e-001  6.2466422e-001  6.2515263e-001  6.2515263e-001  6.2466422e-001  6.2222222e-001  6.1929182e-001  6.1538462e-001  6.1245421e-001  6.1050061e-001  6.0659341e-001  5.9975580e-001  5.9194139e-001  5.8363858e-001  5.8021978e-001  5.7484737e-001  5.6996337e-001  5.6507937e-001  5.5824176e-001  5.5286935e-001  5.5091575e-001  5.4700855e-001  5.4310134e-001  5.3968254e-001  5.3919414e-001  5.3724054e-001  5.3724054e-001  5.3626374e-001  5.3626374e-001  5.3333333e-001  5.3284493e-001  5.3382173e-001  5.3235653e-001  5.3137973e-001  5.3235653e-001  5.3137973e-001  5.3040293e-001  5.3040293e-001  5.2844933e-001  5.2649573e-001  5.2747253e-001  5.2747253e-001  5.2698413e-001  5.2698413e-001  5.2844933e-001  5.3235653e-001  5.2942613e-001  5.2307692e-001  5.1916972e-001  5.1575092e-001  5.1233211e-001  5.0842491e-001  5.0012210e-001  4.8644689e-001  4.7765568e-001  4.7374847e-001  4.7081807e-001  4.7228327e-001  4.7765568e-001  4.8156288e-001  4.7619048e-001  4.6007326e-001  4.4297924e-001  4.3174603e-001  4.2637363e-001  4.1855922e-001  4.0000000e-001  3.7557998e-001  3.5848596e-001  3.5262515e-001  3.6385836e-001  3.7362637e-001  3.7704518e-001  3.8583639e-001  4.0195360e-001  4.1514042e-001  4.3272283e-001  4.4932845e-001  4.6446886e-001  4.7716728e-001  4.9181929e-001  5.0744811e-001  5.2112332e-001  5.3186813e-001  5.4261294e-001  5.5189255e-001  5.6068376e-001  5.6947497e-001  5.7582418e-001  5.8119658e-001  5.8412698e-001  5.8754579e-001  5.9096459e-001  5.9438339e-001  5.9682540e-001  5.9926740e-001  6.0268620e-001  6.0561661e-001  6.0952381e-001  6.1294261e-001  6.1440781e-001  6.1782662e-001  6.2075702e-001  6.2319902e-001  6.2466422e-001  6.2612943e-001  6.2710623e-001  6.2808303e-001  6.2954823e-001  6.3003663e-001  6.3003663e-001  6.3003663e-001  6.3003663e-001  6.2857143e-001  6.2857143e-001  6.2808303e-001  6.2710623e-001  6.2466422e-001  6.2417582e-001  6.2124542e-001  6.2026862e-001  6.1636142e-001  6.1343101e-001  6.0903541e-001  6.0805861e-001  6.0610501e-001  6.0561661e-001  6.0463980e-001  6.0170940e-001  5.9926740e-001  5.9829060e-001  5.9633700e-001  5.9633700e-001  5.9731380e-001  6.0073260e-001  6.0122100e-001  6.0268620e-001  6.0610501e-001  6.0659341e-001  6.0561661e-001  6.0415140e-001  6.0122100e-001  5.9633700e-001  5.9389499e-001  5.9194139e-001  5.8998779e-001  5.8461538e-001  5.7680098e-001  5.6849817e-001  5.6361416e-001  5.5873016e-001  5.5628816e-001  5.5238095e-001  5.4505495e-001  5.3919414e-001  5.3479853e-001  5.3235653e-001  5.3040293e-001  5.2844933e-001  5.2698413e-001  5.2551893e-001  5.2503053e-001  5.2356532e-001  5.2063492e-001  5.2014652e-001  5.1965812e-001  5.1916972e-001  5.1770452e-001  5.1721612e-001  5.1623932e-001  5.1721612e-001  5.1672772e-001  5.1721612e-001  5.1526252e-001  5.1575092e-001  5.1428571e-001  5.1379731e-001  5.1477411e-001  5.1526252e-001  5.1575092e-001  5.1623932e-001  5.0891331e-001  5.0256410e-001  4.9621490e-001  4.9230769e-001  4.8742369e-001  4.7912088e-001  4.6642247e-001  4.5518926e-001  4.5225885e-001  4.4932845e-001  4.5079365e-001  4.5470085e-001  4.6007326e-001  4.6251526e-001  4.5567766e-001  4.3760684e-001  4.1953602e-001  4.0781441e-001  4.0390720e-001  3.8925519e-001  3.6776557e-001  3.4578755e-001  3.3504274e-001  3.3797314e-001  3.5311355e-001  3.6239316e-001  3.6776557e-001  3.8192918e-001  3.9804640e-001  4.1269841e-001  4.2686203e-001  4.4346764e-001  4.5665446e-001  4.6935287e-001  4.8449328e-001  5.0012210e-001  5.1037851e-001  5.2161172e-001  5.3479853e-001  5.4554335e-001  5.5091575e-001  5.5726496e-001  5.6312576e-001  5.6947497e-001  5.7289377e-001  5.7728938e-001  5.7924298e-001  5.8266178e-001  5.8510379e-001  5.8852259e-001  5.9096459e-001  5.9438339e-001  5.9780220e-001  5.9975580e-001  6.0317460e-001  6.0708181e-001  6.1001221e-001  6.1147741e-001  6.1294261e-001  6.1538462e-001  6.1636142e-001  6.1684982e-001  6.1782662e-001  6.1733822e-001  6.1831502e-001  6.1831502e-001  6.1880342e-001  6.1733822e-001  6.1684982e-001  6.1489621e-001  6.1391941e-001  6.1294261e-001  6.1196581e-001  6.0903541e-001  6.0708181e-001  6.0463980e-001  6.0122100e-001  5.9877900e-001  5.9584860e-001  5.9487179e-001  5.9389499e-001  5.9194139e-001  5.8949939e-001  5.8901099e-001  5.8754579e-001  5.8901099e-001  5.8998779e-001  5.9340659e-001  5.9536020e-001  5.9633700e-001  5.9487179e-001  5.9731380e-001  5.9877900e-001  5.9877900e-001  5.9536020e-001  5.9194139e-001  5.8803419e-001  5.8705739e-001  5.8461538e-001  5.8168498e-001  5.7484737e-001  5.6752137e-001  5.6312576e-001  5.5824176e-001  5.5286935e-001  5.4847375e-001  5.4261294e-001  5.3626374e-001  5.3089133e-001  5.2649573e-001  5.2405372e-001  5.2210012e-001  5.2112332e-001  5.2014652e-001  5.2014652e-001  5.1868132e-001  5.1623932e-001  5.1428571e-001  5.1379731e-001  5.1379731e-001  5.1379731e-001  5.1330891e-001  5.1184371e-001  5.0989011e-001  5.0989011e-001  5.0891331e-001  5.0744811e-001  5.0695971e-001  5.0842491e-001  5.0793651e-001  5.0695971e-001  5.0793651e-001  5.0793651e-001  5.0989011e-001  5.0598291e-001  4.9816850e-001  4.8937729e-001  4.8302808e-001  4.7765568e-001  4.7228327e-001  4.5958486e-001  4.4835165e-001  4.4200244e-001  4.4004884e-001  4.3907204e-001  4.4444444e-001  4.4981685e-001  4.5323565e-001  4.4884005e-001  4.3565324e-001  4.1562882e-001  4.0146520e-001  3.9511600e-001  3.8778999e-001  3.6825397e-001  3.4578755e-001  3.3162393e-001  3.2576313e-001  3.3797314e-001  3.5067155e-001  3.5750916e-001  3.6825397e-001  3.8388278e-001  3.9902320e-001  4.1562882e-001  4.3028083e-001  4.4493284e-001  4.5763126e-001  4.7277167e-001  4.8742369e-001  5.0012210e-001  5.1184371e-001  5.2307692e-001  5.3382173e-001  5.4212454e-001  5.4896215e-001  5.5531136e-001  5.6166056e-001  5.6605617e-001  5.6947497e-001  5.7191697e-001  5.7582418e-001  5.7728938e-001  5.8070818e-001  5.8461538e-001  5.8901099e-001  5.8998779e-001  5.9194139e-001  5.9536020e-001  5.9926740e-001  6.0170940e-001  6.0415140e-001  6.0561661e-001  6.0757021e-001  6.0805861e-001  6.1001221e-001  6.1098901e-001  6.1245421e-001  6.1147741e-001  6.1196581e-001  6.1147741e-001  6.1098901e-001  6.1196581e-001  6.1147741e-001  6.1001221e-001  6.0757021e-001  6.0512821e-001  6.0268620e-001  6.0073260e-001  5.9975580e-001  5.9780220e-001  5.9438339e-001  5.9047619e-001  5.8754579e-001  5.8705739e-001  5.8608059e-001  5.8510379e-001  5.8412698e-001  5.8266178e-001  5.8168498e-001  5.8119658e-001  5.8217338e-001  5.8705739e-001  5.8949939e-001  5.9145299e-001  5.9242979e-001  5.9145299e-001  5.9145299e-001  5.9145299e-001  5.8852259e-001  5.8461538e-001  5.8412698e-001  5.8070818e-001  5.7728938e-001  5.7094017e-001  5.6263736e-001  5.5531136e-001  5.5238095e-001  5.4700855e-001  5.4358974e-001  5.3675214e-001  5.3040293e-001  5.2600733e-001  5.2307692e-001  5.1868132e-001  5.1770452e-001  5.1575092e-001  5.1428571e-001  5.1184371e-001  5.1135531e-001  5.1135531e-001  5.0989011e-001  5.0891331e-001  5.0598291e-001  5.0354090e-001  5.0354090e-001  5.0549451e-001  5.0451770e-001  5.0402930e-001  5.0354090e-001  5.0305250e-001  5.0158730e-001  5.0256410e-001  5.0158730e-001  5.0012210e-001  4.9816850e-001  5.0012210e-001  5.0305250e-001  5.0158730e-001  4.9230769e-001  4.8693529e-001  4.8009768e-001  4.7472527e-001  4.6642247e-001  4.5567766e-001  4.4444444e-001  4.3760684e-001  4.3663004e-001  4.3516484e-001  4.3663004e-001  4.4004884e-001  4.4688645e-001  4.4688645e-001  4.3663004e-001  4.1709402e-001  4.0146520e-001  3.9072039e-001  3.8485958e-001  3.6776557e-001  3.4725275e-001  3.2625153e-001  3.1843712e-001  3.2478632e-001  3.4139194e-001  3.4725275e-001  3.5506716e-001  3.7069597e-001  3.8730159e-001  4.0195360e-001  4.1611722e-001  4.3125763e-001  4.4688645e-001  4.6105006e-001  4.7619048e-001  4.8840049e-001  5.0012210e-001  5.1282051e-001  5.2454212e-001  5.3284493e-001  5.3870574e-001  5.4505495e-001  5.5091575e-001  5.5579976e-001  5.5970696e-001  5.6459096e-001  5.6752137e-001  5.7191697e-001  5.7435897e-001  5.7728938e-001  5.7924298e-001  5.8266178e-001  5.8559219e-001  5.8803419e-001  5.9047619e-001  5.9389499e-001  5.9584860e-001  5.9731380e-001  5.9975580e-001  6.0268620e-001  6.0366300e-001  6.0415140e-001  6.0512821e-001  6.0512821e-001  6.0512821e-001  6.0512821e-001  6.0463980e-001  6.0317460e-001  6.0317460e-001  6.0219780e-001  6.0170940e-001  5.9975580e-001  5.9829060e-001  5.9584860e-001  5.9536020e-001  5.9096459e-001  5.8852259e-001  5.8608059e-001  5.8510379e-001  5.8363858e-001  5.8315018e-001  5.8217338e-001  5.8168498e-001  5.8021978e-001  5.7973138e-001  5.7924298e-001  5.8021978e-001  5.8461538e-001  5.8608059e-001  5.8656899e-001  5.8949939e-001  5.9096459e-001  5.8998779e-001  5.8803419e-001  5.8510379e-001  5.8363858e-001  5.8217338e-001  5.8070818e-001  5.7728938e-001  5.7045177e-001  5.6117216e-001  5.5531136e-001  5.5238095e-001  5.4700855e-001  5.4358974e-001  5.3919414e-001  5.3235653e-001  5.2698413e-001  5.2112332e-001  5.1721612e-001  5.1575092e-001  5.1477411e-001  5.1477411e-001  5.1233211e-001  5.1086691e-001  5.0989011e-001  5.0940171e-001  5.0744811e-001  5.0647131e-001  5.0402930e-001  5.0402930e-001  5.0402930e-001  5.0402930e-001  5.0256410e-001  5.0207570e-001  5.0012210e-001  5.0061050e-001  5.0012210e-001  4.9816850e-001  4.9719170e-001  4.9768010e-001  4.9719170e-001  5.0012210e-001  4.9816850e-001  4.9230769e-001  4.8595849e-001  4.7814408e-001  4.7228327e-001  4.6446886e-001  4.5421245e-001  4.4004884e-001  4.3076923e-001  4.2930403e-001  4.2783883e-001  4.3125763e-001  4.3663004e-001  4.4102564e-001  4.4151404e-001  4.3321123e-001  4.1562882e-001  3.9609280e-001  3.8583639e-001  3.8095238e-001  3.6776557e-001  3.4529915e-001  3.2429792e-001  3.1452991e-001  3.1941392e-001  3.3455433e-001  3.4285714e-001  3.4725275e-001  3.6190476e-001  3.8046398e-001  3.9658120e-001  4.1074481e-001  4.2539683e-001  4.4151404e-001  4.5518926e-001  4.7081807e-001  4.8302808e-001  4.9523810e-001  5.0598291e-001  5.1868132e-001  5.2747253e-001  5.3431013e-001  5.3968254e-001  5.4798535e-001  5.5286935e-001  5.5677656e-001  5.5824176e-001  5.6263736e-001  5.6703297e-001  5.7045177e-001  5.7289377e-001  5.7533578e-001  5.7826618e-001  5.8119658e-001  5.8510379e-001  5.8754579e-001  5.8949939e-001  5.9242979e-001  5.9536020e-001  5.9682540e-001  5.9877900e-001  5.9975580e-001  6.0073260e-001  6.0122100e-001  6.0170940e-001  6.0170940e-001  6.0122100e-001  6.0170940e-001  6.0073260e-001  6.0073260e-001  5.9975580e-001  5.9780220e-001  5.9584860e-001  5.9487179e-001  5.9291819e-001  5.9047619e-001  5.8705739e-001  5.8510379e-001  5.8266178e-001  5.8168498e-001  5.8021978e-001  5.7777778e-001  5.7582418e-001  5.7680098e-001  5.7435897e-001  5.7387057e-001  5.7533578e-001  5.7680098e-001  5.7973138e-001  5.8266178e-001  5.8412698e-001  5.8461538e-001  5.8510379e-001  5.8559219e-001  5.8315018e-001  5.8119658e-001  5.7826618e-001  5.7728938e-001  5.7435897e-001  5.7142857e-001  5.6654457e-001  5.5824176e-001  5.5140415e-001  5.4749695e-001  5.4261294e-001  5.3870574e-001  5.3382173e-001  5.2649573e-001  5.2112332e-001  5.1623932e-001  5.1233211e-001  5.1037851e-001  5.0940171e-001  5.0744811e-001  5.0647131e-001  5.0500611e-001  5.0402930e-001  5.0207570e-001  5.0158730e-001  5.0061050e-001  4.9719170e-001  4.9523810e-001  4.9621490e-001  4.9670330e-001  4.9572650e-001  4.9474969e-001  4.9426129e-001  4.9328449e-001  4.9279609e-001  4.9328449e-001  4.9133089e-001  4.9035409e-001  4.9035409e-001  4.9328449e-001  4.9133089e-001  4.8449328e-001  4.7960928e-001  4.7277167e-001  4.6495726e-001  4.5714286e-001  4.4590965e-001  4.3321123e-001  4.2393162e-001  4.2295482e-001  4.2197802e-001  4.2344322e-001  4.2686203e-001  4.3272283e-001  4.3467643e-001  4.2735043e-001  4.0976801e-001  3.9267399e-001  3.8192918e-001  3.7606838e-001  3.6336996e-001  3.4090354e-001  3.2039072e-001  3.1062271e-001  3.1452991e-001  3.2918193e-001  3.3846154e-001  3.4383394e-001  3.5946276e-001  3.7557998e-001  3.9120879e-001  4.0537241e-001  4.2100122e-001  4.3663004e-001  4.5079365e-001  4.6642247e-001  4.7960928e-001  4.9035409e-001  5.0305250e-001  5.1379731e-001  5.2356532e-001  5.3089133e-001  5.3724054e-001  5.4456654e-001  5.4945055e-001  5.5286935e-001  5.5531136e-001  5.5921856e-001  5.6117216e-001  5.6507937e-001  5.6703297e-001  5.7045177e-001  5.7387057e-001  5.7728938e-001  5.7875458e-001  5.8315018e-001  5.8656899e-001  5.8949939e-001  5.8998779e-001  5.9242979e-001  5.9389499e-001  5.9584860e-001  5.9682540e-001  5.9682540e-001  5.9780220e-001  5.9829060e-001  5.9877900e-001  5.9780220e-001  5.9682540e-001  5.9536020e-001  5.9487179e-001  5.9291819e-001  5.9047619e-001  5.8949939e-001  5.8901099e-001  5.8705739e-001  5.8510379e-001  5.8217338e-001  5.7973138e-001  5.7631258e-001  5.7533578e-001  5.7435897e-001  5.7387057e-001  5.7240537e-001  5.7045177e-001  5.7094017e-001  5.7240537e-001  5.7289377e-001  5.7728938e-001  5.7973138e-001  5.7973138e-001  5.8021978e-001  5.8168498e-001  5.8119658e-001  5.7875458e-001  5.7680098e-001  5.7338217e-001  5.7094017e-001  5.6947497e-001  5.6752137e-001  5.6068376e-001  5.5140415e-001  5.4407814e-001  5.4114774e-001  5.3577534e-001  5.3284493e-001  5.2698413e-001  5.2112332e-001  5.1672772e-001  5.1184371e-001  5.0695971e-001  5.0549451e-001  5.0305250e-001  5.0305250e-001  5.0256410e-001  5.0158730e-001  5.0061050e-001  4.9865690e-001  4.9670330e-001  4.9474969e-001  4.9426129e-001  4.9377289e-001  4.9230769e-001  4.9230769e-001  4.9133089e-001  4.8986569e-001  4.8986569e-001  4.8888889e-001  4.8937729e-001  4.8840049e-001  4.8791209e-001  4.8644689e-001  4.8595849e-001  4.8791209e-001  4.8888889e-001  4.8205128e-001  4.7472527e-001  4.6642247e-001  4.6007326e-001  4.5323565e-001  4.4297924e-001  4.2979243e-001  4.2051282e-001  4.2051282e-001  4.1904762e-001  4.2197802e-001  4.2490842e-001  4.2979243e-001  4.3125763e-001  4.2295482e-001  4.0341880e-001  3.8632479e-001  3.7606838e-001  3.7313797e-001  3.5848596e-001  3.3601954e-001  3.1599512e-001  3.0866911e-001  3.1208791e-001  3.2771673e-001  3.3601954e-001  3.4236874e-001  3.5506716e-001  3.7216117e-001  3.8778999e-001  4.0390720e-001  4.2002442e-001  4.3467643e-001  4.4835165e-001  4.6300366e-001  4.7667888e-001  4.8840049e-001  5.0061050e-001  5.1330891e-001  5.2258852e-001  5.2844933e-001  5.3528694e-001  5.4065934e-001  5.4652015e-001  5.4896215e-001  5.5189255e-001  5.5531136e-001  5.5921856e-001  5.6263736e-001  5.6605617e-001  5.6898657e-001  5.7045177e-001  5.7289377e-001  5.7680098e-001  5.8021978e-001  5.8217338e-001  5.8510379e-001  5.8754579e-001  5.8852259e-001  5.8901099e-001  5.9242979e-001  5.9389499e-001  5.9389499e-001  5.9438339e-001  5.9536020e-001  5.9389499e-001  5.9340659e-001  5.9389499e-001  5.9340659e-001  5.8998779e-001  5.8803419e-001  5.8705739e-001  5.8510379e-001  5.8217338e-001  5.8119658e-001  5.7875458e-001  5.7728938e-001  5.7484737e-001  5.7338217e-001  5.7240537e-001  5.7191697e-001  5.7094017e-001  5.6898657e-001  5.6605617e-001  5.6605617e-001  5.6849817e-001  5.6947497e-001  5.7338217e-001  5.7582418e-001  5.7631258e-001  5.7631258e-001  5.7777778e-001  5.7777778e-001  5.7680098e-001  5.7240537e-001  5.6947497e-001  5.6703297e-001  5.6556777e-001  5.6214896e-001  5.5531136e-001  5.4652015e-001  5.4212454e-001  5.3821734e-001  5.3333333e-001  5.3040293e-001  5.2454212e-001  5.1868132e-001  5.1330891e-001  5.0793651e-001  5.0500611e-001  5.0354090e-001  5.0305250e-001  5.0207570e-001  5.0012210e-001  4.9816850e-001  4.9621490e-001  4.9572650e-001  4.9426129e-001  4.9377289e-001  4.9230769e-001  4.9230769e-001  4.9084249e-001  4.9035409e-001  4.8840049e-001  4.8937729e-001  4.8937729e-001  4.8840049e-001  4.8693529e-001  4.8693529e-001  4.8693529e-001  4.8742369e-001  4.8791209e-001  4.8986569e-001  4.8742369e-001  4.7863248e-001  4.7277167e-001  4.6544567e-001  4.5909646e-001  4.5225885e-001  4.4200244e-001  4.2637363e-001  4.1855922e-001  4.1807082e-001  4.1758242e-001  4.1953602e-001  4.2442002e-001  4.3028083e-001  4.3076923e-001  4.2148962e-001  4.0341880e-001  3.8632479e-001  3.7606838e-001  3.7069597e-001  3.5555556e-001  3.3406593e-001  3.1501832e-001  3.0671551e-001  3.1208791e-001  3.2722833e-001  3.3504274e-001  3.4285714e-001  3.5653236e-001  3.7313797e-001  3.8876679e-001  4.0586081e-001  4.2148962e-001  4.3614164e-001  4.4981685e-001  4.6593407e-001  4.7814408e-001  4.9084249e-001  5.0158730e-001  5.1282051e-001  5.2258852e-001  5.3089133e-001  5.3772894e-001  5.4407814e-001  5.4700855e-001  5.5091575e-001  5.5482295e-001  5.5775336e-001  5.6068376e-001  5.6361416e-001  5.6654457e-001  5.6996337e-001  5.7387057e-001  5.7582418e-001  5.7777778e-001  5.8217338e-001  5.8608059e-001  5.8754579e-001  5.8901099e-001  5.9096459e-001  5.9340659e-001  5.9536020e-001  5.9584860e-001  5.9584860e-001  5.9682540e-001  5.9633700e-001  5.9584860e-001  5.9536020e-001  5.9487179e-001  5.9389499e-001  5.9242979e-001  5.9096459e-001  5.8901099e-001  5.8803419e-001  5.8608059e-001  5.8412698e-001  5.8119658e-001  5.7826618e-001  5.7533578e-001  5.7387057e-001  5.7240537e-001  5.7240537e-001  5.7045177e-001  5.6996337e-001  5.6703297e-001  5.6849817e-001  5.6996337e-001  5.7289377e-001  5.7533578e-001  5.7533578e-001  5.7582418e-001  5.7875458e-001  5.7973138e-001  5.7924298e-001  5.7582418e-001  5.7289377e-001  5.7045177e-001  5.6996337e-001  5.6800977e-001  5.6410256e-001  5.5677656e-001  5.4798535e-001  5.4358974e-001  5.3821734e-001  5.3382173e-001  5.3186813e-001  5.2698413e-001  5.2014652e-001  5.1526252e-001  5.1086691e-001  5.0793651e-001  5.0402930e-001  5.0207570e-001  5.0207570e-001  5.0158730e-001  5.0109890e-001  5.0109890e-001  5.0012210e-001  4.9719170e-001  4.9523810e-001  4.9377289e-001  4.9279609e-001  4.9230769e-001  4.9133089e-001  4.9035409e-001  4.8986569e-001  4.8840049e-001  4.8791209e-001  4.8791209e-001  4.8791209e-001  4.8644689e-001  4.8644689e-001  4.8595849e-001  4.8742369e-001  4.8498168e-001  4.7863248e-001  4.7179487e-001  4.6398046e-001  4.5714286e-001  4.4981685e-001  4.3760684e-001  4.2490842e-001  4.1709402e-001  4.1562882e-001  4.1416361e-001  4.1855922e-001  4.2393162e-001  4.2881563e-001  4.2783883e-001  4.1807082e-001  3.9804640e-001  3.8241758e-001  3.7509158e-001  3.6971917e-001  3.5067155e-001  3.2918193e-001  3.1257631e-001  3.0573871e-001  3.1257631e-001  3.2771673e-001  3.3650794e-001  3.4432234e-001  3.5848596e-001  3.7509158e-001  3.9169719e-001  4.0586081e-001  4.2197802e-001  4.3565324e-001  4.4932845e-001  4.6544567e-001  4.7912088e-001  4.9133089e-001  5.0305250e-001  5.1282051e-001  5.2112332e-001  5.2747253e-001  5.3528694e-001  5.4310134e-001  5.4700855e-001  5.4896215e-001  5.5189255e-001  5.5677656e-001  5.6019536e-001  5.6312576e-001  5.6459096e-001  5.6703297e-001  5.6947497e-001  5.7387057e-001  5.7728938e-001  5.8119658e-001  5.8168498e-001  5.8412698e-001  5.8559219e-001  5.8754579e-001  5.8852259e-001  5.9047619e-001  5.9096459e-001  5.9194139e-001  5.9340659e-001  5.9389499e-001  5.9291819e-001  5.9291819e-001  5.9194139e-001  5.8998779e-001  5.8901099e-001  5.8754579e-001  5.8559219e-001  5.8266178e-001  5.8119658e-001  5.7826618e-001  5.7680098e-001  5.7338217e-001  5.7045177e-001  5.6898657e-001  5.6800977e-001  5.6605617e-001  5.6556777e-001  5.6507937e-001  5.6166056e-001  5.6068376e-001  5.6410256e-001  5.6703297e-001  5.6947497e-001  5.7045177e-001  5.7191697e-001  5.7338217e-001  5.7338217e-001  5.7387057e-001  5.6996337e-001  5.6605617e-001  5.6361416e-001  5.6410256e-001  5.6068376e-001  5.5775336e-001  5.5091575e-001  5.4358974e-001  5.3675214e-001  5.3284493e-001  5.2844933e-001  5.2698413e-001  5.2063492e-001  5.1379731e-001  5.0744811e-001  5.0402930e-001  5.0207570e-001  5.0158730e-001  5.0061050e-001  4.9816850e-001  4.9621490e-001  4.9426129e-001  4.9230769e-001  4.9133089e-001  4.9084249e-001  4.8937729e-001  4.8888889e-001  4.8742369e-001  4.8693529e-001  4.8498168e-001  4.8498168e-001  4.8449328e-001  4.8449328e-001  4.8449328e-001  4.8351648e-001  4.8253968e-001  4.8253968e-001  4.8302808e-001  4.8449328e-001  4.8693529e-001  4.8498168e-001  4.7765568e-001  4.7130647e-001  4.6495726e-001  4.6056166e-001  4.5567766e-001  4.4639805e-001  4.3223443e-001  4.2295482e-001  4.1953602e-001  4.1611722e-001  4.2002442e-001  4.2490842e-001  4.3076923e-001  4.2881563e-001  4.1807082e-001  4.0000000e-001  3.8534799e-001  3.7655678e-001  3.7216117e-001  3.5604396e-001  3.3601954e-001  3.1550672e-001  3.0720391e-001  3.1159951e-001  3.2429792e-001  3.2869353e-001  3.3504274e-001  3.5115995e-001  3.6874237e-001  3.8290598e-001  3.9804640e-001  4.1221001e-001  4.2588523e-001  4.4053724e-001  4.5518926e-001  4.6739927e-001  4.7863248e-001  4.8986569e-001  5.0061050e-001  5.0989011e-001  5.1672772e-001  5.2356532e-001  5.2991453e-001  5.3479853e-001  5.3772894e-001  5.4065934e-001  5.4358974e-001  5.4700855e-001  5.4896215e-001  5.5091575e-001  5.5286935e-001  5.5579976e-001  5.5970696e-001  5.6068376e-001  5.6312576e-001  5.6654457e-001  5.6800977e-001  5.6947497e-001  5.7191697e-001  5.7338217e-001  5.7338217e-001  5.7387057e-001  5.7728938e-001  5.7777778e-001  5.7924298e-001  5.7728938e-001  5.7728938e-001  5.7631258e-001  5.7582418e-001  5.7435897e-001  5.7435897e-001  5.7094017e-001  5.7045177e-001  5.6996337e-001  5.6947497e-001  5.6605617e-001  5.6507937e-001  5.6507937e-001  5.6410256e-001  5.6361416e-001  5.6361416e-001  5.6117216e-001  5.5970696e-001  5.6263736e-001  5.6507937e-001  5.6849817e-001  5.6996337e-001  5.7094017e-001  5.7240537e-001  5.7289377e-001  5.7094017e-001  5.7094017e-001  5.6605617e-001  5.6166056e-001  5.6019536e-001  5.5873016e-001  5.5531136e-001  5.5042735e-001  5.4114774e-001  5.3479853e-001  5.3089133e-001  5.2649573e-001  5.2258852e-001  5.1575092e-001  5.0744811e-001  5.0305250e-001  5.0109890e-001  4.9621490e-001  4.9474969e-001  4.9230769e-001  4.9035409e-001  4.9035409e-001  4.9035409e-001  4.8791209e-001  4.8693529e-001  4.8644689e-001  4.8742369e-001  4.8644689e-001  4.8498168e-001  4.8205128e-001  4.8156288e-001  4.8253968e-001  4.8351648e-001  4.8205128e-001  4.8156288e-001  4.8009768e-001  4.8058608e-001  4.8156288e-001  4.8449328e-001  4.8644689e-001  4.8840049e-001  4.9230769e-001  4.9279609e-001  4.9084249e-001  4.8791209e-001  4.8742369e-001  4.8840049e-001  4.8644689e-001  4.7716728e-001  4.6495726e-001  4.5421245e-001  4.4542125e-001  4.3907204e-001  4.3858364e-001  4.4053724e-001  4.4395604e-001  4.4151404e-001  4.2881563e-001  4.1074481e-001  3.9902320e-001  3.9560440e-001  3.8974359e-001  3.7216117e-001  3.5164835e-001  3.3406593e-001  3.2673993e-001  3.3455433e-001  3.4041514e-001  3.4041514e-001  3.4676435e-001  3.6483516e-001  3.8339438e-001  4.0146520e-001  4.1611722e-001  4.3125763e-001  4.4346764e-001  4.5860806e-001  4.7081807e-001  4.8351648e-001  4.9426129e-001  5.0598291e-001  5.1672772e-001  5.2698413e-001  5.3382173e-001  5.3968254e-001  5.4505495e-001  5.4993895e-001  5.5335775e-001  5.5677656e-001  5.6019536e-001  5.6263736e-001  5.6361416e-001  5.6556777e-001  5.7045177e-001  5.7387057e-001  5.7435897e-001  5.7728938e-001  5.7973138e-001  5.8168498e-001  5.8315018e-001  5.8461538e-001  5.8705739e-001  5.8754579e-001  5.8949939e-001  5.9047619e-001  5.9145299e-001  5.9096459e-001  5.9145299e-001  5.9096459e-001  5.8998779e-001  5.8949939e-001  5.9145299e-001  5.9194139e-001  5.9096459e-001  5.8852259e-001  5.8510379e-001  5.8412698e-001  5.8363858e-001  5.8412698e-001  5.8412698e-001  5.8412698e-001  5.8412698e-001  5.8510379e-001  5.8266178e-001  5.8412698e-001  5.8608059e-001  5.8998779e-001  5.9389499e-001  5.9487179e-001  5.9389499e-001  5.9584860e-001  5.9780220e-001  5.9633700e-001  5.9194139e-001  5.8852259e-001  5.8315018e-001  5.8168498e-001  5.7973138e-001  5.7484737e-001  5.6703297e-001  5.5970696e-001  5.5482295e-001  5.4993895e-001  5.4603175e-001  5.4163614e-001  5.3382173e-001  5.2942613e-001  5.2551893e-001  5.2063492e-001  5.1721612e-001  5.1526252e-001  5.1526252e-001  5.1428571e-001  5.1282051e-001  5.1135531e-001  5.0940171e-001  5.0744811e-001  5.0793651e-001  5.0891331e-001  5.0842491e-001  5.0647131e-001  5.0598291e-001  5.0598291e-001  5.0451770e-001  5.0354090e-001  5.0354090e-001  5.0354090e-001  5.0158730e-001  5.0305250e-001  5.0256410e-001  5.0500611e-001  5.0744811e-001  5.1233211e-001  5.1575092e-001  5.1330891e-001  5.1135531e-001  5.1282051e-001  5.1282051e-001  5.1379731e-001  5.0989011e-001  4.9816850e-001  4.8156288e-001  4.7081807e-001  4.6007326e-001  4.5421245e-001  4.5225885e-001  4.5616606e-001  4.5958486e-001  4.5372405e-001  4.3614164e-001  4.1953602e-001  4.0976801e-001  4.0586081e-001  3.9902320e-001  3.8095238e-001  3.5702076e-001  3.3992674e-001  3.3553114e-001  3.4432234e-001  3.4822955e-001  3.4676435e-001  3.5750916e-001  3.7753358e-001  3.9658120e-001  4.1660562e-001  4.3467643e-001  4.4835165e-001  4.6105006e-001  4.7570208e-001  4.8791209e-001  4.9719170e-001  5.0891331e-001  5.2161172e-001  5.3235653e-001  5.3968254e-001  5.4456654e-001  5.5140415e-001  5.5775336e-001  5.6166056e-001  5.6263736e-001  5.6556777e-001  5.6947497e-001  5.7289377e-001  5.7387057e-001  5.7631258e-001  5.7875458e-001  5.8168498e-001  5.8315018e-001  5.8559219e-001  5.8754579e-001  5.9242979e-001  5.9389499e-001  5.9536020e-001  5.9633700e-001  5.9584860e-001  5.9731380e-001  5.9975580e-001  6.0122100e-001  6.0170940e-001  6.0073260e-001  5.9975580e-001  5.9975580e-001  5.9975580e-001  5.9975580e-001  5.9877900e-001  5.9584860e-001  5.9340659e-001  5.9242979e-001  5.9145299e-001  5.8998779e-001  5.8656899e-001  5.8559219e-001  5.8461538e-001  5.8412698e-001  5.8363858e-001  5.8266178e-001  5.7826618e-001  5.7631258e-001  5.7826618e-001  5.8119658e-001  5.8412698e-001  5.8656899e-001  5.8559219e-001  5.8608059e-001  5.8705739e-001  5.8656899e-001  5.8461538e-001  5.8070818e-001  5.7680098e-001  5.7338217e-001  5.7045177e-001  5.6654457e-001  5.6068376e-001  5.5091575e-001  5.4505495e-001  5.4163614e-001  5.3772894e-001  5.3284493e-001  5.2698413e-001  5.1916972e-001  5.1526252e-001  5.1233211e-001  5.0891331e-001  5.0549451e-001  5.0549451e-001  5.0305250e-001  5.0207570e-001  5.0109890e-001  5.0012210e-001  4.9670330e-001  4.9768010e-001  4.9768010e-001  4.9621490e-001  4.9474969e-001  4.9230769e-001  4.9133089e-001  4.9035409e-001  4.9035409e-001  4.9133089e-001  4.9133089e-001  4.9035409e-001  4.9035409e-001  4.8840049e-001  4.8791209e-001  4.8840049e-001  4.9133089e-001  4.9426129e-001  4.9035409e-001  4.8595849e-001  4.8009768e-001  4.7570208e-001  4.7228327e-001  4.6788767e-001  4.5860806e-001  4.4542125e-001  4.3711844e-001  4.3272283e-001  4.3028083e-001  4.3321123e-001  4.3858364e-001  4.4102564e-001  4.3467643e-001  4.2002442e-001  4.0146520e-001  3.9023199e-001  3.8730159e-001  3.7997558e-001  3.5995116e-001  3.3699634e-001  3.1892552e-001  3.1599512e-001  3.2625153e-001  3.3504274e-001  3.3699634e-001  3.4774115e-001  3.6434676e-001  3.8095238e-001  3.9609280e-001  4.0927961e-001  4.2344322e-001  4.3711844e-001  4.5225885e-001  4.6495726e-001  4.7765568e-001  4.8937729e-001  5.0061050e-001  5.1086691e-001  5.1916972e-001  5.2649573e-001  5.3284493e-001  5.3919414e-001  5.4310134e-001  5.4505495e-001  5.4896215e-001  5.5384615e-001  5.5775336e-001  5.5824176e-001  5.6019536e-001  5.6410256e-001  5.6703297e-001  5.6800977e-001  5.7142857e-001  5.7435897e-001  5.7680098e-001  5.7875458e-001  5.8070818e-001  5.8217338e-001  5.8412698e-001  5.8656899e-001  5.8656899e-001  5.8705739e-001  5.8852259e-001  5.8949939e-001  5.8803419e-001  5.8754579e-001  5.8608059e-001  5.8608059e-001  5.8412698e-001  5.8461538e-001  5.8315018e-001  5.8168498e-001  5.7826618e-001  5.7631258e-001  5.7289377e-001  5.6996337e-001  5.6654457e-001  5.6556777e-001  5.6459096e-001  5.6361416e-001  5.6068376e-001  5.5873016e-001  5.5775336e-001  5.5482295e-001  5.5628816e-001  5.5775336e-001  5.6019536e-001  5.6214896e-001  5.6410256e-001  5.6556777e-001  5.6605617e-001  5.6556777e-001  5.6410256e-001  5.6019536e-001  5.5677656e-001  5.5482295e-001  5.5384615e-001  5.5189255e-001  5.4847375e-001  5.3968254e-001  5.3284493e-001  5.2844933e-001  5.2307692e-001  5.1965812e-001  5.1526252e-001  5.0842491e-001  5.0256410e-001  4.9719170e-001  4.9230769e-001  4.9181929e-001  4.9035409e-001  4.8986569e-001  4.8937729e-001  4.8840049e-001  4.8595849e-001  4.8595849e-001  4.8498168e-001  4.8449328e-001  4.8205128e-001  4.8058608e-001  4.8009768e-001  4.8009768e-001  4.7863248e-001  4.7814408e-001  4.7667888e-001  4.7619048e-001  4.7374847e-001  4.7326007e-001  4.7423687e-001  4.7472527e-001  4.7423687e-001  4.7472527e-001  4.7472527e-001  4.6935287e-001  4.6495726e-001  4.5811966e-001  4.5225885e-001  4.4786325e-001  4.4004884e-001  4.2783883e-001  4.1611722e-001  4.1074481e-001  4.0732601e-001  4.0781441e-001  4.1221001e-001  4.1660562e-001  4.2002442e-001  4.1318681e-001  3.9560440e-001  3.7704518e-001  3.6727717e-001  3.6288156e-001  3.5311355e-001  3.3211233e-001  3.0866911e-001  2.9499389e-001  2.9548230e-001  3.0964591e-001  3.1843712e-001  3.2380952e-001  3.3601954e-001  3.5213675e-001  3.6727717e-001  3.8241758e-001  3.9609280e-001  4.0976801e-001  4.2100122e-001  4.3711844e-001  4.4981685e-001  4.6300366e-001  4.7374847e-001  4.8498168e-001  4.9230769e-001  5.0012210e-001  5.0647131e-001  5.1379731e-001  5.1819292e-001  5.2161172e-001  5.2356532e-001  5.2747253e-001  5.3235653e-001  5.3479853e-001  5.3724054e-001  5.3968254e-001  5.4261294e-001  5.4358974e-001  5.4554335e-001  5.4749695e-001  5.5091575e-001  5.5335775e-001  5.5579976e-001  5.5726496e-001  5.5873016e-001  5.5921856e-001  5.5970696e-001  5.6117216e-001  5.6166056e-001  5.6117216e-001  5.6068376e-001  5.6019536e-001  5.6019536e-001  5.5873016e-001  5.5824176e-001  5.5628816e-001  5.5286935e-001  5.5042735e-001  5.5042735e-001  5.5042735e-001  5.4652015e-001  5.4310134e-001  5.3919414e-001  5.3626374e-001  5.3333333e-001  5.3284493e-001  5.2844933e-001  5.2698413e-001  5.2698413e-001  5.2600733e-001  5.2356532e-001  5.2356532e-001  5.2356532e-001  5.2747253e-001  5.2991453e-001  5.3040293e-001  5.3089133e-001  5.3333333e-001  5.3333333e-001  5.3186813e-001  5.2844933e-001  5.2551893e-001  5.2356532e-001  5.2258852e-001  5.1868132e-001  5.1330891e-001  5.0598291e-001  4.9865690e-001  4.9426129e-001  4.8888889e-001  4.8595849e-001  4.7960928e-001  4.7228327e-001  4.6788767e-001  4.6300366e-001  4.5909646e-001  4.5860806e-001  4.5714286e-001  4.5567766e-001  4.5372405e-001  4.5323565e-001  4.5177045e-001  4.4884005e-001  4.4737485e-001  4.4835165e-001  4.4884005e-001  4.4737485e-001  4.4590965e-001  4.4444444e-001  4.4444444e-001  4.4395604e-001  4.4444444e-001  4.4346764e-001  4.4346764e-001  4.4395604e-001  4.4493284e-001  4.4444444e-001  4.4346764e-001  4.4493284e-001  4.4737485e-001  4.4151404e-001  4.3711844e-001  4.3028083e-001  4.2539683e-001  4.2002442e-001  4.1318681e-001  4.0146520e-001  3.9023199e-001  3.8534799e-001  3.8241758e-001  3.8241758e-001  3.8730159e-001  3.9365079e-001  3.9658120e-001  3.8974359e-001  3.7216117e-001  3.5409035e-001  3.4383394e-001  3.3992674e-001  3.3113553e-001  3.1159951e-001  2.8913309e-001  2.7594628e-001  2.7594628e-001  2.9059829e-001  3.0085470e-001  3.0573871e-001  3.1843712e-001  3.3601954e-001  3.5164835e-001  3.6630037e-001  3.8046398e-001  3.9511600e-001  4.0879121e-001  4.2393162e-001  4.3760684e-001  4.5030525e-001  4.6105006e-001  4.7130647e-001  4.8253968e-001  4.8986569e-001  4.9670330e-001  5.0451770e-001  5.1135531e-001  5.1428571e-001  5.1770452e-001  5.1965812e-001  5.2405372e-001  5.2747253e-001  5.3089133e-001  5.3431013e-001  5.3821734e-001  5.4065934e-001  5.4163614e-001  5.4358974e-001  5.4945055e-001  5.5286935e-001  5.5531136e-001  5.5628816e-001  5.5873016e-001  5.5921856e-001  5.6068376e-001  5.6019536e-001  5.6117216e-001  5.6312576e-001  5.6312576e-001  5.6410256e-001  5.6361416e-001  5.6214896e-001  5.6019536e-001  5.5970696e-001  5.5824176e-001  5.5579976e-001  5.5482295e-001  5.5384615e-001  5.5140415e-001  5.4896215e-001  5.4505495e-001  5.4358974e-001  5.4163614e-001  5.4065934e-001  5.3870574e-001  5.3772894e-001  5.3577534e-001  5.3528694e-001  5.3479853e-001  5.3479853e-001  5.3577534e-001  5.4017094e-001  5.4358974e-001  5.4456654e-001  5.4603175e-001  5.4505495e-001  5.4603175e-001  5.4554335e-001  5.4456654e-001  5.4114774e-001  5.4017094e-001  5.3772894e-001  5.3431013e-001  5.2796093e-001  5.2014652e-001  5.1330891e-001  5.1135531e-001  5.0695971e-001  5.0354090e-001  4.9670330e-001  4.8986569e-001  4.8400488e-001  4.8058608e-001  4.7814408e-001  4.7570208e-001  4.7326007e-001  4.7179487e-001  4.7081807e-001  4.6984127e-001  4.6984127e-001  4.6739927e-001  4.6593407e-001  4.6495726e-001  4.6446886e-001  4.6202686e-001  4.6007326e-001  4.5958486e-001  4.5909646e-001  4.5811966e-001  4.5665446e-001  4.5567766e-001  4.5616606e-001  4.5665446e-001  4.5665446e-001  4.5665446e-001  4.5616606e-001  4.5665446e-001  4.5860806e-001  4.5323565e-001  4.4737485e-001  4.4053724e-001  4.3467643e-001  4.2930403e-001  4.2100122e-001  4.0927961e-001  3.9658120e-001  3.9218559e-001  3.8974359e-001  3.9120879e-001  3.9316239e-001  3.9902320e-001  4.0195360e-001  3.9706960e-001  3.7899878e-001  3.6141636e-001  3.4969475e-001  3.4578755e-001  3.3504274e-001  3.1599512e-001  2.9304029e-001  2.8034188e-001  2.8083028e-001  2.9694750e-001  3.0671551e-001  3.1013431e-001  3.2185592e-001  3.3992674e-001  3.5750916e-001  3.7313797e-001  3.8730159e-001  4.0000000e-001  4.1221001e-001  4.2783883e-001  4.4200244e-001  4.5421245e-001  4.6446886e-001  4.7521368e-001  4.8644689e-001  4.9328449e-001  5.0109890e-001  5.0744811e-001  5.1330891e-001  5.1623932e-001  5.2014652e-001  5.2356532e-001  5.2747253e-001  5.3040293e-001  5.3333333e-001  5.3626374e-001  5.3919414e-001  5.4212454e-001  5.4505495e-001  5.4798535e-001  5.5091575e-001  5.5433455e-001  5.5628816e-001  5.5921856e-001  5.6166056e-001  5.6410256e-001  5.6361416e-001  5.6459096e-001  5.6507937e-001  5.6605617e-001  5.6605617e-001  5.6703297e-001  5.6605617e-001  5.6605617e-001  5.6410256e-001  5.6361416e-001  5.6214896e-001  5.6117216e-001  5.5873016e-001  5.5726496e-001  5.5482295e-001  5.5238095e-001  5.4896215e-001  5.4749695e-001  5.4700855e-001  5.4603175e-001  5.4652015e-001  5.4456654e-001  5.4310134e-001  5.4114774e-001  5.4163614e-001  5.4212454e-001  5.4358974e-001  5.4798535e-001  5.5042735e-001  5.5091575e-001  5.5238095e-001  5.5286935e-001  5.5384615e-001  5.5286935e-001  5.5042735e-001  5.4749695e-001  5.4603175e-001  5.4505495e-001  5.4212454e-001  5.3675214e-001  5.2796093e-001  5.2258852e-001  5.1916972e-001  5.1428571e-001  5.1135531e-001  5.0598291e-001  4.9621490e-001  4.9230769e-001  4.8742369e-001  4.8449328e-001  4.8205128e-001  4.8058608e-001  4.7960928e-001  4.8009768e-001  4.7814408e-001  4.7814408e-001  4.7619048e-001  4.7472527e-001  4.7228327e-001  4.7130647e-001  4.6984127e-001  4.6984127e-001  4.6837607e-001  4.6886447e-001  4.6837607e-001  4.6739927e-001  4.6642247e-001  4.6691087e-001  4.6691087e-001  4.6642247e-001  4.6739927e-001  4.6691087e-001  4.6739927e-001  4.6788767e-001  4.6446886e-001  4.5860806e-001  4.5177045e-001  4.4590965e-001  4.4102564e-001  4.3174603e-001  4.1953602e-001  4.0683761e-001  4.0244200e-001  3.9951160e-001  4.0000000e-001  4.0439560e-001  4.0927961e-001  4.1123321e-001  4.0634921e-001  3.9120879e-001  3.7313797e-001  3.6190476e-001  3.5750916e-001  3.4774115e-001  3.2820513e-001  3.0769231e-001  2.9401709e-001  2.9499389e-001  3.0964591e-001  3.2087912e-001  3.2429792e-001  3.3748474e-001  3.5457875e-001  3.7216117e-001  3.8632479e-001  4.0195360e-001  4.1660562e-001  4.3028083e-001  4.4444444e-001  4.5860806e-001  4.7032967e-001  4.8205128e-001  4.9181929e-001  5.0354090e-001  5.1086691e-001  5.1770452e-001  5.2405372e-001  5.2942613e-001  5.3284493e-001  5.3479853e-001  5.3821734e-001  5.4212454e-001  5.4407814e-001  5.4652015e-001  5.4993895e-001  5.5286935e-001  5.5531136e-001  5.5726496e-001  5.5921856e-001  5.6068376e-001  5.6361416e-001  5.6507937e-001  5.6752137e-001  5.6849817e-001  5.6996337e-001  5.6996337e-001  5.7094017e-001  5.7094017e-001  5.7191697e-001  5.7142857e-001  5.7045177e-001  5.6996337e-001  5.6898657e-001  5.6654457e-001  5.6556777e-001  5.6605617e-001  5.6459096e-001  5.6312576e-001  5.6068376e-001  5.5824176e-001  5.5286935e-001  5.5091575e-001  5.4896215e-001  5.4700855e-001  5.4554335e-001  5.4505495e-001  5.4456654e-001  5.4407814e-001  5.4163614e-001  5.4114774e-001  5.4065934e-001  5.4310134e-001  5.4749695e-001  5.5042735e-001  5.5189255e-001  5.5384615e-001  5.5482295e-001  5.5384615e-001  5.5238095e-001  5.4945055e-001  5.4700855e-001  5.4554335e-001  5.4456654e-001  5.4212454e-001  5.3675214e-001  5.2844933e-001  5.2356532e-001  5.2063492e-001  5.1623932e-001  5.1282051e-001  5.0744811e-001  5.0109890e-001  4.9621490e-001  4.9230769e-001  4.8937729e-001  4.8742369e-001  4.8742369e-001  4.8644689e-001  4.8547009e-001  4.8498168e-001  4.8449328e-001  4.8351648e-001  4.8253968e-001  4.8156288e-001  4.8009768e-001  4.8058608e-001  4.8009768e-001  4.8009768e-001  4.7912088e-001  4.7960928e-001  4.7814408e-001  4.7765568e-001  4.7667888e-001  4.7716728e-001  4.7716728e-001  4.7765568e-001  4.7667888e-001  4.7814408e-001  4.7667888e-001  4.7081807e-001  4.6495726e-001  4.5860806e-001  4.5177045e-001  4.4639805e-001  4.3663004e-001  4.2295482e-001  4.1074481e-001  4.0732601e-001  4.0439560e-001  4.0488400e-001  4.0976801e-001  4.1611722e-001  4.1758242e-001  4.1025641e-001  3.9267399e-001  3.7460317e-001  3.6385836e-001  3.6043956e-001  3.4920635e-001  3.2869353e-001  3.0769231e-001  2.9597070e-001  2.9841270e-001  3.1306471e-001  3.2283272e-001  3.2820513e-001  3.4188034e-001  3.5702076e-001  3.7264957e-001  3.8827839e-001  4.0244200e-001  4.1611722e-001  4.2832723e-001  4.4395604e-001  4.5860806e-001  4.7130647e-001  4.8058608e-001  4.9230769e-001  5.0256410e-001  5.1086691e-001  5.1526252e-001  5.2161172e-001  5.2600733e-001  5.3089133e-001  5.3382173e-001  5.3821734e-001  5.4065934e-001  5.4310134e-001  5.4407814e-001  5.4847375e-001  5.5238095e-001  5.5531136e-001  5.5677656e-001  5.6068376e-001  5.6410256e-001  5.6703297e-001  5.6947497e-001  5.7191697e-001  5.7289377e-001  5.7338217e-001  5.7533578e-001  5.7680098e-001  5.7777778e-001  5.7875458e-001  5.7826618e-001  5.7680098e-001  5.7728938e-001  5.7728938e-001  5.7777778e-001  5.7631258e-001  5.7533578e-001  5.7289377e-001  5.7191697e-001  5.6996337e-001  5.6849817e-001  5.6654457e-001  5.6312576e-001  5.6019536e-001  5.5970696e-001  5.6019536e-001  5.5873016e-001  5.5775336e-001  5.5579976e-001  5.5482295e-001  5.5628816e-001  5.5824176e-001  5.5970696e-001  5.6214896e-001  5.6312576e-001  5.6654457e-001  5.6703297e-001  5.6703297e-001  5.6459096e-001  5.6214896e-001  5.5775336e-001  5.5628816e-001  5.5384615e-001  5.5091575e-001  5.4456654e-001  5.3626374e-001  5.2942613e-001  5.2747253e-001  5.2161172e-001  5.1770452e-001  5.1330891e-001  5.0598291e-001  4.9816850e-001  4.9426129e-001  4.8937729e-001  4.8547009e-001  4.8595849e-001  4.8498168e-001  4.8302808e-001  4.8058608e-001  4.8009768e-001  4.7863248e-001  4.7814408e-001  4.7667888e-001  4.7619048e-001  4.7423687e-001  4.7423687e-001  4.7277167e-001  4.7228327e-001  4.7130647e-001  4.6935287e-001  4.6935287e-001  4.7081807e-001  4.7032967e-001  4.7032967e-001  4.7081807e-001  4.7032967e-001  4.6984127e-001  4.7228327e-001  4.7032967e-001  4.6300366e-001  4.5714286e-001  4.4932845e-001  4.4297924e-001  4.3565324e-001  4.2686203e-001  4.1367521e-001  4.0683761e-001  4.0537241e-001  4.0439560e-001  4.0634921e-001  4.1172161e-001  4.1611722e-001  4.1562882e-001  4.0293040e-001  3.8485958e-001  3.7069597e-001  3.6434676e-001  3.5897436e-001  3.4285714e-001  3.2283272e-001  3.0525031e-001  2.9938950e-001  3.0866911e-001  3.2332112e-001  3.3015873e-001  3.3943834e-001  3.5555556e-001  3.7216117e-001  3.8681319e-001  4.0293040e-001  4.1807082e-001  4.3272283e-001  4.4688645e-001  4.6202686e-001  4.7277167e-001  4.8498168e-001  4.9621490e-001  5.0891331e-001  5.1672772e-001  5.2356532e-001  5.3040293e-001  5.3577534e-001  5.3968254e-001  5.4310134e-001  5.4554335e-001  5.4798535e-001  5.5091575e-001  5.5384615e-001  5.5775336e-001  5.5970696e-001  5.6263736e-001  5.6459096e-001  5.6752137e-001  5.6996337e-001  5.7387057e-001  5.7533578e-001  5.7826618e-001  5.8021978e-001  5.8266178e-001  5.8315018e-001  5.8608059e-001  5.8705739e-001  5.8852259e-001  5.8803419e-001  5.8901099e-001  5.8803419e-001  5.8901099e-001  5.8803419e-001  5.8754579e-001  5.8608059e-001  5.8363858e-001  5.8363858e-001  5.8168498e-001  5.8070818e-001  5.7777778e-001  5.7680098e-001  5.7484737e-001  5.7338217e-001  5.7338217e-001  5.7387057e-001  5.7240537e-001  5.7240537e-001  5.7094017e-001  5.7240537e-001  5.7338217e-001  5.7631258e-001  5.8119658e-001  5.8510379e-001  5.8559219e-001  5.8754579e-001  5.8949939e-001  5.9047619e-001  5.9047619e-001  5.8705739e-001  5.8363858e-001  5.8412698e-001  5.8461538e-001  5.8168498e-001  5.7533578e-001  5.6703297e-001  5.6312576e-001  5.5921856e-001  5.5531136e-001  5.5286935e-001  5.4896215e-001  5.4261294e-001  5.4065934e-001  5.3675214e-001  5.3479853e-001  5.3333333e-001  5.3382173e-001  5.3186813e-001  5.3235653e-001  5.3137973e-001  5.3137973e-001  5.3137973e-001  5.3137973e-001  5.2991453e-001  5.3089133e-001  5.3040293e-001  5.3089133e-001  5.3040293e-001  5.3040293e-001  5.3040293e-001  5.2942613e-001  5.2991453e-001  5.3089133e-001  5.3235653e-001  5.3431013e-001  5.3479853e-001  5.3235653e-001  5.3479853e-001  5.3675214e-001  5.3089133e-001  5.2356532e-001  5.1770452e-001  5.1184371e-001  5.0549451e-001  4.9572650e-001  4.8156288e-001  4.6984127e-001  4.6691087e-001  4.6495726e-001  4.6886447e-001  4.7423687e-001  4.8156288e-001  4.8595849e-001  4.7960928e-001  4.6251526e-001  4.4688645e-001  4.3858364e-001  4.3516484e-001  4.2588523e-001  4.0586081e-001  3.8681319e-001  3.7509158e-001  3.7704518e-001  3.9316239e-001  4.0586081e-001  4.1123321e-001  4.2588523e-001  4.4395604e-001  4.6202686e-001  4.7716728e-001  4.9426129e-001  5.1282051e-001  5.2893773e-001  5.4456654e-001  5.6166056e-001  5.7631258e-001  5.8901099e-001  6.0170940e-001  6.1343101e-001  6.2124542e-001  6.2905983e-001  6.3736264e-001  6.4517705e-001  6.4957265e-001  6.5299145e-001  6.5836386e-001  6.6422466e-001  6.6910867e-001  6.7350427e-001  6.7887668e-001  6.8424908e-001  6.8913309e-001  6.9401709e-001  6.9938950e-001  7.0427350e-001  7.0866911e-001  7.1257631e-001  7.1697192e-001  7.1990232e-001  7.2332112e-001  7.2673993e-001  7.2967033e-001  7.3162393e-001  7.3455433e-001  7.3650794e-001  7.3748474e-001  7.3943834e-001  7.4041514e-001  7.4041514e-001  7.4041514e-001  7.4236874e-001  7.4188034e-001  7.4139194e-001  7.4041514e-001  7.4041514e-001  7.3797314e-001  7.3699634e-001  7.3601954e-001  7.3601954e-001  7.3504274e-001  7.3650794e-001  7.3748474e-001  7.3894994e-001  7.3846154e-001  7.4139194e-001  7.4432234e-001  7.4822955e-001  7.5164835e-001  7.5409035e-001  7.5604396e-001  7.5897436e-001  7.6288156e-001  7.6434676e-001  7.6385836e-001  7.6190476e-001  7.6092796e-001  7.5946276e-001  7.5848596e-001  7.5604396e-001  7.5213675e-001  7.4578755e-001  7.4188034e-001  7.3894994e-001  7.3455433e-001  7.3406593e-001  7.3162393e-001  7.2673993e-001  7.2283272e-001  7.1843712e-001  7.1501832e-001  7.1452991e-001  7.1501832e-001  7.1550672e-001  7.1501832e-001  7.1501832e-001  7.1501832e-001  7.1599512e-001  7.1452991e-001  7.1452991e-001  7.1404151e-001  7.1550672e-001  7.1501832e-001  