  5.3382173e-001  5.3308913e-001  5.3137973e-001  5.3137973e-001  5.3186813e-001  5.3504274e-001  5.3870574e-001  5.4236874e-001  5.4529915e-001  5.4725275e-001  5.4725275e-001  5.4725275e-001  5.4603175e-001  5.4407814e-001  5.4285714e-001  5.4163614e-001  5.3919414e-001  5.3626374e-001  5.3260073e-001  5.2820513e-001  5.2527473e-001  5.2283272e-001  5.2161172e-001  5.2039072e-001  5.1965812e-001  5.1916972e-001  5.1916972e-001  5.1916972e-001  5.1843712e-001  5.1721612e-001  5.1721612e-001  5.1599512e-001  5.1672772e-001  5.1599512e-001  5.1599512e-001  5.1599512e-001  5.1599512e-001  5.1721612e-001  5.1965812e-001  5.2454212e-001  5.3186813e-001  5.4114774e-001  5.5091575e-001  5.6190476e-001  5.7582418e-001  5.9169719e-001  6.0952381e-001  6.2710623e-001  6.4420024e-001  6.5836386e-001  6.7057387e-001  6.8205128e-001  6.9133089e-001  6.9792430e-001  7.0354090e-001  7.0891331e-001  7.1501832e-001  7.2063492e-001  7.2356532e-001  7.2234432e-001  7.1575092e-001  7.0525031e-001  6.9304029e-001  6.7960928e-001  6.6446886e-001  6.4859585e-001  6.3199023e-001  6.1611722e-001  6.0097680e-001  5.8510379e-001  5.6800977e-001  5.4774115e-001  5.2576313e-001  5.0256410e-001  4.7985348e-001  4.6275946e-001  4.5128205e-001  4.4395604e-001  4.4200244e-001  4.4151404e-001  4.4151404e-001  4.4029304e-001  4.3663004e-001  4.3101343e-001  4.2442002e-001  4.1831502e-001  4.1391941e-001  4.1147741e-001  4.1025641e-001  4.0903541e-001  4.0854701e-001  4.0732601e-001  4.0610501e-001  4.0537241e-001  4.0415140e-001  4.0244200e-001  4.0048840e-001  4.0000000e-001  3.9926740e-001  3.9877900e-001  3.9877900e-001  3.9804640e-001  3.9682540e-001  3.9560440e-001  3.9438339e-001  3.9438339e-001  3.9560440e-001  3.9682540e-001  3.9804640e-001  4.0000000e-001  4.0170940e-001  4.0415140e-001  4.0781441e-001  4.1221001e-001  4.1709402e-001  4.2197802e-001  4.2808303e-001  4.3345543e-001  4.4029304e-001  4.4688645e-001  4.5421245e-001  4.6153846e-001  4.6886447e-001  4.7619048e-001  4.8424908e-001  4.9084249e-001  5.0012210e-001  5.0573871e-001  5.1111111e-001  5.1599512e-001  5.2161172e-001  5.2576313e-001  5.2942613e-001  5.3308913e-001  5.3504274e-001  5.3626374e-001  5.3797314e-001  5.3919414e-001  5.4114774e-001  5.4163614e-001  5.4163614e-001  5.4041514e-001  5.3919414e-001  5.3919414e-001  5.3870574e-001  5.3870574e-001  5.3797314e-001  5.3748474e-001  5.3626374e-001  5.3553114e-001  5.3382173e-001  5.3308913e-001  5.3186813e-001  5.3064713e-001  5.2942613e-001  5.2893773e-001  5.2820513e-001  5.2893773e-001  5.2893773e-001  5.3015873e-001  5.3064713e-001  5.3186813e-001  5.3308913e-001  5.3308913e-001  5.3260073e-001  5.3186813e-001  5.3137973e-001  5.3186813e-001  5.3431013e-001  5.3797314e-001  5.4285714e-001  5.4529915e-001  5.4652015e-001  5.4603175e-001  5.4481074e-001  5.4358974e-001  5.4285714e-001  5.4114774e-001  5.3919414e-001  5.3748474e-001  5.3553114e-001  5.3186813e-001  5.2820513e-001  5.2454212e-001  5.2210012e-001  5.1965812e-001  5.1794872e-001  5.1721612e-001  5.1599512e-001  5.1599512e-001  5.1672772e-001  5.1672772e-001  5.1599512e-001  5.1550672e-001  5.1550672e-001  5.1550672e-001  5.1477411e-001  5.1477411e-001  5.1477411e-001  5.1477411e-001  5.1477411e-001  5.1721612e-001  5.2161172e-001  5.2893773e-001  5.3870574e-001  5.5091575e-001  5.6239316e-001  5.7533578e-001  5.9120879e-001  6.0879121e-001  6.2661783e-001  6.4371184e-001  6.5714286e-001  6.6862027e-001  6.7912088e-001  6.8693529e-001  6.9304029e-001  6.9621490e-001  7.0036630e-001  7.0598291e-001  7.1086691e-001  7.1257631e-001  7.1013431e-001  7.0231990e-001  6.9133089e-001  6.7912088e-001  6.6691087e-001  6.5225885e-001  6.3638584e-001  6.1929182e-001  6.0512821e-001  5.9120879e-001  5.7655678e-001  5.6068376e-001  5.4163614e-001  5.2039072e-001  5.0012210e-001  4.7814408e-001  4.6227106e-001  4.5054945e-001  4.4322344e-001  4.4151404e-001  4.4078144e-001  4.4029304e-001  4.3907204e-001  4.3540904e-001  4.3052503e-001  4.2442002e-001  4.1831502e-001  4.1465201e-001  4.1221001e-001  4.1147741e-001  4.1098901e-001  4.1025641e-001  4.0903541e-001  4.0903541e-001  4.0781441e-001  4.0659341e-001  4.0610501e-001  4.0488400e-001  4.0366300e-001  4.0293040e-001  4.0244200e-001  4.0122100e-001  4.0048840e-001  4.0000000e-001  4.0122100e-001  4.0170940e-001  4.0170940e-001  4.0122100e-001  4.0293040e-001  4.0293040e-001  4.0488400e-001  4.0732601e-001  4.1025641e-001  4.1343101e-001  4.1758242e-001  4.2246642e-001  4.2808303e-001  4.3223443e-001  4.3833944e-001  4.4444444e-001  4.5128205e-001  4.5787546e-001  4.6520147e-001  4.7203907e-001  4.7936508e-001  4.8595849e-001  4.9206349e-001  5.0012210e-001  5.0622711e-001  5.1184371e-001  5.1721612e-001  5.2210012e-001  5.2576313e-001  5.2942613e-001  5.3137973e-001  5.3431013e-001  5.3626374e-001  5.3675214e-001  5.3748474e-001  5.3870574e-001  5.3870574e-001  5.3870574e-001  5.3919414e-001  5.3919414e-001  5.3870574e-001  5.3797314e-001  5.3675214e-001  5.3626374e-001  5.3431013e-001  5.3431013e-001  5.3308913e-001  5.3308913e-001  5.3186813e-001  5.3015873e-001  5.2942613e-001  5.2893773e-001  5.2820513e-001  5.2820513e-001  5.2893773e-001  5.2893773e-001  5.3015873e-001  5.3064713e-001  5.3186813e-001  5.3308913e-001  5.3186813e-001  5.3137973e-001  5.3015873e-001  5.2942613e-001  5.3186813e-001  5.3553114e-001  5.3870574e-001  5.4163614e-001  5.4285714e-001  5.4285714e-001  5.4285714e-001  5.4163614e-001  5.4114774e-001  5.3992674e-001  5.3797314e-001  5.3504274e-001  5.3186813e-001  5.2771673e-001  5.2405372e-001  5.2161172e-001  5.1843712e-001  5.1721612e-001  5.1672772e-001  5.1550672e-001  5.1477411e-001  5.1550672e-001  5.1550672e-001  5.1599512e-001  5.1599512e-001  5.1599512e-001  5.1550672e-001  5.1477411e-001  5.1428571e-001  5.1355311e-001  5.1355311e-001  5.1355311e-001  5.1355311e-001  5.1428571e-001  5.1721612e-001  5.2210012e-001  5.2942613e-001  5.3919414e-001  5.5140415e-001  5.6361416e-001  5.7777778e-001  5.9365079e-001  6.1074481e-001  6.2710623e-001  6.4175824e-001  6.5274725e-001  6.6251526e-001  6.6984127e-001  6.7472527e-001  6.7716728e-001  6.7960928e-001  6.8205128e-001  6.8766789e-001  6.9059829e-001  6.9181929e-001  6.8693529e-001  6.7789988e-001  6.6617827e-001  6.5396825e-001  6.4126984e-001  6.2710623e-001  6.1367521e-001  5.9975580e-001  5.8681319e-001  5.7582418e-001  5.6483516e-001  5.5140415e-001  5.3626374e-001  5.1843712e-001  5.0012210e-001  4.8058608e-001  4.6715507e-001  4.5616606e-001  4.5128205e-001  4.4884005e-001  4.4932845e-001  4.4761905e-001  4.4517705e-001  4.4078144e-001  4.3663004e-001  4.3101343e-001  4.2612943e-001  4.2246642e-001  4.2075702e-001  4.1953602e-001  4.1880342e-001  4.1880342e-001  4.1758242e-001  4.1709402e-001  4.1587302e-001  4.1465201e-001  4.1343101e-001  4.1269841e-001  4.1221001e-001  4.1147741e-001  4.1098901e-001  4.1025641e-001  4.0903541e-001  4.0903541e-001  4.0854701e-001  4.0903541e-001  4.0854701e-001  4.0976801e-001  4.1098901e-001  4.1221001e-001  4.1391941e-001  4.1587302e-001  4.1758242e-001  4.2002442e-001  4.2442002e-001  4.2857143e-001  4.3467643e-001  4.4029304e-001  4.4566545e-001  4.5177045e-001  4.5860806e-001  4.6471306e-001  4.7130647e-001  4.7814408e-001  4.8473748e-001  4.9206349e-001  5.0012210e-001  5.0622711e-001  5.1233211e-001  5.1721612e-001  5.2283272e-001  5.2649573e-001  5.2942613e-001  5.3308913e-001  5.3553114e-001  5.3748474e-001  5.3919414e-001  5.4041514e-001  5.4114774e-001  5.4163614e-001  5.4285714e-001  5.4285714e-001  5.4236874e-001  5.4285714e-001  5.4285714e-001  5.4163614e-001  5.4041514e-001  5.3919414e-001  5.3797314e-001  5.3675214e-001  5.3553114e-001  5.3504274e-001  5.3382173e-001  5.3308913e-001  5.3186813e-001  5.3137973e-001  5.3015873e-001  5.3015873e-001  5.2942613e-001  5.2942613e-001  5.2942613e-001  5.3064713e-001  5.3186813e-001  5.3308913e-001  5.3382173e-001  5.3308913e-001  5.3186813e-001  5.3064713e-001  5.3137973e-001  5.3260073e-001  5.3675214e-001  5.4041514e-001  5.4407814e-001  5.4652015e-001  5.4725275e-001  5.4652015e-001  5.4652015e-001  5.4603175e-001  5.4358974e-001  5.4163614e-001  5.4041514e-001  5.3797314e-001  5.3504274e-001  5.3064713e-001  5.2771673e-001  5.2454212e-001  5.2332112e-001  5.2210012e-001  5.2161172e-001  5.1965812e-001  5.1843712e-001  5.1965812e-001  5.1916972e-001  5.1916972e-001  5.1916972e-001  5.1916972e-001  5.1843712e-001  5.1843712e-001  5.1794872e-001  5.1843712e-001  5.1843712e-001  5.1843712e-001  5.2039072e-001  5.2283272e-001  5.2771673e-001  5.3626374e-001  5.4529915e-001  5.5702076e-001  5.6800977e-001  5.8266178e-001  5.9780220e-001  6.1562882e-001  6.3199023e-001  6.4786325e-001  6.5958486e-001  6.7057387e-001  6.8034188e-001  6.8766789e-001  6.9377289e-001  6.9792430e-001  7.0476190e-001  7.1013431e-001  7.1501832e-001  7.1575092e-001  7.1135531e-001  7.0231990e-001  6.9059829e-001  6.7960928e-001  6.6568987e-001  6.5103785e-001  6.3443223e-001  6.1855922e-001  6.0341880e-001  5.9047619e-001  5.7582418e-001  5.5946276e-001  5.4114774e-001  5.2039072e-001  4.9694750e-001  4.7814408e-001  4.6275946e-001  4.5299145e-001  4.4932845e-001  4.4884005e-001  4.4884005e-001  4.4810745e-001  4.4517705e-001  4.4151404e-001  4.3540904e-001  4.2930403e-001  4.2442002e-001  4.2197802e-001  4.1880342e-001  4.1758242e-001  4.1709402e-001  4.1709402e-001  4.1465201e-001  4.1391941e-001  4.1343101e-001  4.1343101e-001  4.1221001e-001  4.1147741e-001  4.1025641e-001  4.0976801e-001  4.0976801e-001  4.0854701e-001  4.0732601e-001  4.0537241e-001  4.0488400e-001  4.0488400e-001  4.0537241e-001  4.0537241e-001  4.0659341e-001  4.0781441e-001  4.0976801e-001  4.1221001e-001  4.1587302e-001  4.1831502e-001  4.2246642e-001  4.2686203e-001  4.3223443e-001  4.3785104e-001  4.4395604e-001  4.5128205e-001  4.5787546e-001  4.6471306e-001  4.7203907e-001  4.7936508e-001  4.8669109e-001  4.9328449e-001  5.0207570e-001  5.0866911e-001  5.1477411e-001  5.2039072e-001  5.2527473e-001  5.2942613e-001  5.3382173e-001  5.3675214e-001  5.3919414e-001  5.4163614e-001  5.4358974e-001  5.4529915e-001  5.4603175e-001  5.4725275e-001  5.4652015e-001  5.4774115e-001  5.4652015e-001  5.4603175e-001  5.4529915e-001  5.4481074e-001  5.4358974e-001  5.4285714e-001  5.4114774e-001  5.3992674e-001  5.3870574e-001  5.3748474e-001  5.3626374e-001  5.3504274e-001  5.3431013e-001  5.3382173e-001  5.3382173e-001  5.3308913e-001  5.3382173e-001  5.3504274e-001  5.3675214e-001  5.3797314e-001  5.3870574e-001  5.3748474e-001  5.3675214e-001  5.3553114e-001  5.3553114e-001  5.3626374e-001  5.3870574e-001  5.4236874e-001  5.4603175e-001  5.4774115e-001  5.4896215e-001  5.4847375e-001  5.4774115e-001  5.4725275e-001  5.4603175e-001  5.4407814e-001  5.4285714e-001  5.4041514e-001  5.3748474e-001  5.3382173e-001  5.2942613e-001  5.2698413e-001  5.2576313e-001  5.2454212e-001  5.2332112e-001  5.2283272e-001  5.2161172e-001  5.2087912e-001  5.2039072e-001  5.2087912e-001  5.2039072e-001  5.2039072e-001  5.1965812e-001  5.1965812e-001  5.1843712e-001  5.1843712e-001  5.1916972e-001  5.1965812e-001  5.2039072e-001  5.2332112e-001  5.2820513e-001  5.3504274e-001  5.4407814e-001  5.5384615e-001  5.6605617e-001  5.7899878e-001  5.9536020e-001  6.1318681e-001  6.3076923e-001  6.4786325e-001  6.6202686e-001  6.7472527e-001  6.8571429e-001  6.9426129e-001  7.0158730e-001  7.0647131e-001  7.1257631e-001  7.1868132e-001  7.2356532e-001  7.2429792e-001  7.1990232e-001  7.1135531e-001  7.0109890e-001  6.8937729e-001  6.7545788e-001  6.6007326e-001  6.4420024e-001  6.2710623e-001  6.1123321e-001  5.9609280e-001  5.7948718e-001  5.6190476e-001  5.4041514e-001  5.1916972e-001  4.9450549e-001  4.7570208e-001  4.5860806e-001  4.4761905e-001  4.4273504e-001  4.4273504e-001  4.4322344e-001  4.4322344e-001  4.4151404e-001  4.3663004e-001  4.3052503e-001  4.2442002e-001  4.1880342e-001  4.1636142e-001  4.1391941e-001  4.1269841e-001  4.1147741e-001  4.0976801e-001  4.0854701e-001  4.0781441e-001  4.0659341e-001  4.0610501e-001  4.0415140e-001  4.0293040e-001  4.0244200e-001  4.0122100e-001  4.0122100e-001  4.0000000e-001  3.9877900e-001  3.9755800e-001  3.9755800e-001  3.9755800e-001  3.9755800e-001  3.9804640e-001  4.0000000e-001  4.0170940e-001  4.0415140e-001  4.0732601e-001  4.1025641e-001  4.1391941e-001  4.1709402e-001  4.2197802e-001  4.2735043e-001  4.3296703e-001  4.3907204e-001  4.4639805e-001  4.5299145e-001  4.6105006e-001  4.6886447e-001  4.7741148e-001  4.8424908e-001  4.9279609e-001  5.0085470e-001  5.0818071e-001  5.1355311e-001  5.1916972e-001  5.2283272e-001  5.2649573e-001  5.3015873e-001  5.3382173e-001  5.3553114e-001  5.3797314e-001  5.3870574e-001  5.4114774e-001  5.4236874e-001  5.4358974e-001  5.4358974e-001  5.4285714e-001  5.4236874e-001  5.4236874e-001  5.4163614e-001  5.4041514e-001  5.4041514e-001  5.3992674e-001  5.3919414e-001  5.3797314e-001  5.3675214e-001  5.3553114e-001  5.3431013e-001  5.3382173e-001  5.3308913e-001  5.3260073e-001  5.3186813e-001  5.3064713e-001  5.2893773e-001  5.2820513e-001  5.2698413e-001  5.2698413e-001  5.2698413e-001  5.2649573e-001  5.2649573e-001  5.2771673e-001  5.2893773e-001  5.2942613e-001  5.2942613e-001  5.2942613e-001  5.2893773e-001  5.2820513e-001  5.2893773e-001  5.3186813e-001  5.3626374e-001  5.4114774e-001  5.4407814e-001  5.4652015e-001  5.4774115e-001  5.4847375e-001  5.4847375e-001  5.4774115e-001  5.4529915e-001  5.4358974e-001  5.4163614e-001  5.3870574e-001  5.3504274e-001  5.3137973e-001  5.2771673e-001  5.2454212e-001  5.2332112e-001  5.2161172e-001  5.2039072e-001  5.1916972e-001  5.1916972e-001  5.1794872e-001  5.1794872e-001  5.1721612e-001  5.1672772e-001  5.1599512e-001  5.1599512e-001  5.1550672e-001  5.1550672e-001  5.1477411e-001  5.1477411e-001  5.1477411e-001  5.1599512e-001  5.1843712e-001  5.2405372e-001  5.3186813e-001  5.4285714e-001  5.5384615e-001  5.6727717e-001  5.8192918e-001  5.9780220e-001  6.1562882e-001  6.3199023e-001  6.4664225e-001  6.5885226e-001  6.6935287e-001  6.7789988e-001  6.8449328e-001  6.8888889e-001  6.9181929e-001  6.9670330e-001  7.0231990e-001  7.0525031e-001  7.0598291e-001  7.0036630e-001  6.9255189e-001  6.8156288e-001  6.6984127e-001  6.5641026e-001  6.4249084e-001  6.2539683e-001  6.1001221e-001  5.9609280e-001  5.8315018e-001  5.6849817e-001  5.5335775e-001  5.3553114e-001  5.1477411e-001  4.9206349e-001  4.7448107e-001  4.5982906e-001  4.5006105e-001  4.4566545e-001  4.4517705e-001  4.4517705e-001  4.4322344e-001  4.4078144e-001  4.3663004e-001  4.3101343e-001  4.2490842e-001  4.2002442e-001  4.1636142e-001  4.1465201e-001  4.1391941e-001  4.1343101e-001  4.1221001e-001  4.1147741e-001  4.1147741e-001  4.1025641e-001  4.1025641e-001  4.0781441e-001  4.0781441e-001  4.0732601e-001  4.0610501e-001  4.0415140e-001  4.0366300e-001  4.0170940e-001  4.0170940e-001  4.0170940e-001  4.0244200e-001  4.0293040e-001  4.0366300e-001  4.0415140e-001  4.0537241e-001  4.0537241e-001  4.0854701e-001  4.1147741e-001  4.1587302e-001  4.1953602e-001  4.2490842e-001  4.2979243e-001  4.3589744e-001  4.4151404e-001  4.4810745e-001  4.5494505e-001  4.6153846e-001  4.6837607e-001  4.7496947e-001  4.8302808e-001  4.9035409e-001  5.0012210e-001  5.0573871e-001  5.1184371e-001  5.1721612e-001  5.2161172e-001  5.2576313e-001  5.2942613e-001  5.3382173e-001  5.3675214e-001  5.3797314e-001  5.3992674e-001  5.4041514e-001  5.4163614e-001  5.4163614e-001  5.4358974e-001  5.4358974e-001  5.4285714e-001  5.4236874e-001  5.4163614e-001  5.4114774e-001  5.4041514e-001  5.3992674e-001  5.3870574e-001  5.3675214e-001  5.3626374e-001  5.3504274e-001  5.3382173e-001  5.3260073e-001  5.3186813e-001  5.3137973e-001  5.3015873e-001  5.2942613e-001  5.2893773e-001  5.2820513e-001  5.2771673e-001  5.2698413e-001  5.2698413e-001  5.2820513e-001  5.2893773e-001  5.2942613e-001  5.2942613e-001  5.3015873e-001  5.2942613e-001  5.2893773e-001  5.2820513e-001  5.2820513e-001  5.2893773e-001  5.3260073e-001  5.3675214e-001  5.4114774e-001  5.4481074e-001  5.4725275e-001  5.4847375e-001  5.4896215e-001  5.4847375e-001  5.4774115e-001  5.4652015e-001  5.4529915e-001  5.4285714e-001  5.3992674e-001  5.3626374e-001  5.3186813e-001  5.2942613e-001  5.2649573e-001  5.2527473e-001  5.2405372e-001  5.2332112e-001  5.2161172e-001  5.2087912e-001  5.1965812e-001  5.1965812e-001  5.1916972e-001  5.1916972e-001  5.1916972e-001  5.1916972e-001  5.1843712e-001  5.1672772e-001  5.1672772e-001  5.1672772e-001  5.1721612e-001  5.1843712e-001  5.2161172e-001  5.2698413e-001  5.3431013e-001  5.4358974e-001  5.5457875e-001  5.6605617e-001  5.8021978e-001  5.9731380e-001  6.1611722e-001  6.3321123e-001  6.4859585e-001  6.6202686e-001  6.7350427e-001  6.8327228e-001  6.9255189e-001  6.9792430e-001  7.0354090e-001  7.0891331e-001  7.1501832e-001  7.1868132e-001  7.1941392e-001  7.1575092e-001  7.0769231e-001  6.9792430e-001  6.8522589e-001  6.7179487e-001  6.5641026e-001  6.4053724e-001  6.2295482e-001  6.0757021e-001  5.9242979e-001  5.7655678e-001  5.5873016e-001  5.3870574e-001  5.1672772e-001  4.9279609e-001  4.7326007e-001  4.5787546e-001  4.4761905e-001  4.4322344e-001  4.4273504e-001  4.4273504e-001  4.4151404e-001  4.3956044e-001  4.3467643e-001  4.2808303e-001  4.2197802e-001  4.1709402e-001  4.1269841e-001  4.1025641e-001  4.1025641e-001  4.0976801e-001  4.0903541e-001  4.0854701e-001  4.0781441e-001  4.0659341e-001  4.0537241e-001  4.0366300e-001  4.0293040e-001  4.0122100e-001  4.0048840e-001  3.9926740e-001  3.9926740e-001  3.9804640e-001  3.9755800e-001  3.9682540e-001  3.9682540e-001  3.9755800e-001  3.9877900e-001  4.0048840e-001  4.0170940e-001  4.0415140e-001  4.0610501e-001  4.0903541e-001  4.1221001e-001  4.1709402e-001  4.2197802e-001  4.2686203e-001  4.3223443e-001  4.3785104e-001  4.4395604e-001  4.5128205e-001  4.5787546e-001  4.6593407e-001  4.7326007e-001  4.8058608e-001  4.8717949e-001  4.9523810e-001  5.0378510e-001  5.0989011e-001  5.1550672e-001  5.1916972e-001  5.2283272e-001  5.2698413e-001  5.3015873e-001  5.3308913e-001  5.3553114e-001  5.3748474e-001  5.3919414e-001  5.4041514e-001  5.4163614e-001  5.4114774e-001  5.4114774e-001  5.4041514e-001  5.4114774e-001  5.3992674e-001  5.3919414e-001  5.3870574e-001  5.3797314e-001  5.3626374e-001  5.3504274e-001  5.3382173e-001  5.3308913e-001  5.3186813e-001  5.3137973e-001  5.3015873e-001  5.2893773e-001  5.2771673e-001  5.2771673e-001  5.2698413e-001  5.2576313e-001  5.2527473e-001  5.2454212e-001  5.2405372e-001  5.2405372e-001  5.2454212e-001  5.2527473e-001  5.2576313e-001  5.2698413e-001  5.2820513e-001  5.2820513e-001  5.2820513e-001  5.2698413e-001  5.2698413e-001  5.2820513e-001  5.3137973e-001  5.3553114e-001  5.4041514e-001  5.4407814e-001  5.4652015e-001  5.4847375e-001  5.4847375e-001  5.4847375e-001  5.4847375e-001  5.4652015e-001  5.4407814e-001  5.4236874e-001  5.3919414e-001  5.3504274e-001  5.3064713e-001  5.2820513e-001  5.2576313e-001  5.2332112e-001  5.2161172e-001  5.2087912e-001  5.1965812e-001  5.2039072e-001  5.1965812e-001  5.2039072e-001  5.1916972e-001  5.1916972e-001  5.1843712e-001  5.1794872e-001  5.1672772e-001  5.1672772e-001  5.1599512e-001  5.1599512e-001  5.1672772e-001  5.1843712e-001  5.2210012e-001  5.2771673e-001  5.3553114e-001  5.4529915e-001  5.5702076e-001  5.6849817e-001  5.8510379e-001  6.0219780e-001  6.2051282e-001  6.3760684e-001  6.5347985e-001  6.6568987e-001  6.7789988e-001  6.8815629e-001  6.9670330e-001  7.0231990e-001  7.0720391e-001  7.1208791e-001  7.1868132e-001  7.2185592e-001  7.2185592e-001  7.1697192e-001  7.0769231e-001  6.9670330e-001  6.8522589e-001  6.7106227e-001  6.5592186e-001  6.3931624e-001  6.2344322e-001  6.0952381e-001  5.9413919e-001  5.7777778e-001  5.5824176e-001  5.3675214e-001  5.1477411e-001  4.9157509e-001  4.7252747e-001  4.5787546e-001  4.4761905e-001  4.4322344e-001  4.4151404e-001  4.4078144e-001  4.4029304e-001  4.3711844e-001  4.3296703e-001  4.2612943e-001  4.2002442e-001  4.1465201e-001  4.1221001e-001  4.1098901e-001  4.1098901e-001  4.0976801e-001  4.0903541e-001  4.0732601e-001  4.0659341e-001  4.0610501e-001  4.0488400e-001  4.0415140e-001  4.0366300e-001  4.0244200e-001  4.0122100e-001  4.0000000e-001  4.0000000e-001  3.9926740e-001  3.9926740e-001  3.9926740e-001  3.9926740e-001  3.9926740e-001  4.0000000e-001  4.0048840e-001  4.0170940e-001  4.0293040e-001  4.0610501e-001  4.0903541e-001  4.1221001e-001  4.1709402e-001  4.2124542e-001  4.2612943e-001  4.3296703e-001  4.3907204e-001  4.4566545e-001  4.5372405e-001  4.5982906e-001  4.6837607e-001  4.7619048e-001  4.8351648e-001  4.9035409e-001  4.9694750e-001  5.0573871e-001  5.1184371e-001  5.1672772e-001  5.2087912e-001  5.2527473e-001  5.2942613e-001  5.3308913e-001  5.3626374e-001  5.3870574e-001  5.3870574e-001  5.3919414e-001  5.4041514e-001  5.4114774e-001  5.4114774e-001  5.4114774e-001  5.4114774e-001  5.4114774e-001  5.4114774e-001  5.4114774e-001  5.3870574e-001  5.3748474e-001  5.3675214e-001  5.3626374e-001  5.3553114e-001  5.3553114e-001  5.3382173e-001  5.3186813e-001  5.3186813e-001  5.3064713e-001  5.2820513e-001  5.2771673e-001  5.2649573e-001  5.2576313e-001  5.2454212e-001  5.2454212e-001  5.2332112e-001  5.2332112e-001  5.2283272e-001  5.2210012e-001  5.2210012e-001  5.2332112e-001  5.2405372e-001  5.2454212e-001  5.2649573e-001  5.2649573e-001  5.2649573e-001  5.2527473e-001  5.2576313e-001  5.2698413e-001  5.3137973e-001  5.3553114e-001  5.4114774e-001  5.4407814e-001  5.4774115e-001  5.4847375e-001  5.4896215e-001  5.4847375e-001  5.4896215e-001  5.4725275e-001  5.4529915e-001  5.4236874e-001  5.3919414e-001  5.3431013e-001  5.3064713e-001  5.2771673e-001  5.2454212e-001  5.2332112e-001  5.2161172e-001  5.2161172e-001  5.2039072e-001  5.1916972e-001  5.1843712e-001  5.1794872e-001  5.1721612e-001  5.1721612e-001  5.1672772e-001  5.1599512e-001  5.1550672e-001  5.1550672e-001  5.1477411e-001  5.1550672e-001  5.1477411e-001  5.1550672e-001  5.1794872e-001  5.2210012e-001  5.2942613e-001  5.3992674e-001  5.5140415e-001  5.6361416e-001  5.7826618e-001  5.9487179e-001  6.1245421e-001  6.2954823e-001  6.4615385e-001  6.5836386e-001  6.6862027e-001  6.7594628e-001  6.8327228e-001  6.8644689e-001  6.8937729e-001  6.9377289e-001  6.9987790e-001  7.0402930e-001  7.0476190e-001  6.9987790e-001  6.9181929e-001  6.8083028e-001  6.6984127e-001  6.5714286e-001  6.4371184e-001  6.2783883e-001  6.1318681e-001  5.9902320e-001  5.8681319e-001  5.7289377e-001  5.5824176e-001  5.4114774e-001  5.2039072e-001  5.0012210e-001  4.7985348e-001  4.6398046e-001  4.5250305e-001  4.4566545e-001  4.4395604e-001  4.4395604e-001  4.4322344e-001  4.4078144e-001  4.3589744e-001  4.3052503e-001  4.2442002e-001  4.1880342e-001  4.1465201e-001  4.1221001e-001  4.1147741e-001  4.1098901e-001  4.1098901e-001  4.1025641e-001  4.0976801e-001  4.0903541e-001  4.0781441e-001  4.0659341e-001  4.0610501e-001  4.0415140e-001  4.0415140e-001  4.0293040e-001  4.0293040e-001  4.0170940e-001  4.0122100e-001  4.0122100e-001  4.0048840e-001  4.0122100e-001  4.0244200e-001  4.0244200e-001  4.0415140e-001  4.0610501e-001  4.0854701e-001  4.0976801e-001  4.1343101e-001  4.1636142e-001  4.2197802e-001  4.2564103e-001  4.3101343e-001  4.3785104e-001  4.4322344e-001  4.4932845e-001  4.5616606e-001  4.6349206e-001  4.7130647e-001  4.7936508e-001  4.8547009e-001  4.9206349e-001  5.0012210e-001  5.0622711e-001  5.1184371e-001  5.1672772e-001  5.2161172e-001  5.2649573e-001  5.3015873e-001  5.3308913e-001  5.3504274e-001  5.3675214e-001  5.3797314e-001  5.3919414e-001  5.4041514e-001  5.4041514e-001  5.4163614e-001  5.4114774e-001  5.4114774e-001  5.3992674e-001  5.3919414e-001  5.3870574e-001  5.3797314e-001  5.3675214e-001  5.3553114e-001  5.3431013e-001  5.3382173e-001  5.3186813e-001  5.3137973e-001  5.3064713e-001  5.3015873e-001  5.2893773e-001  5.2820513e-001  5.2698413e-001  5.2576313e-001  5.2454212e-001  5.2405372e-001  5.2332112e-001  5.2332112e-001  5.2210012e-001  5.2283272e-001  5.2283272e-001  5.2405372e-001  5.2527473e-001  5.2649573e-001  5.2698413e-001  5.2698413e-001  5.2649573e-001  5.2527473e-001  5.2576313e-001  5.2771673e-001  5.3186813e-001  5.3675214e-001  5.4114774e-001  5.4407814e-001  5.4725275e-001  5.4725275e-001  5.4847375e-001  5.4847375e-001  5.4725275e-001  5.4529915e-001  5.4358974e-001  5.4041514e-001  5.3797314e-001  5.3308913e-001  5.2942613e-001  5.2649573e-001  5.2405372e-001  5.2210012e-001  5.2087912e-001  5.2039072e-001  5.1965812e-001  5.2039072e-001  5.1965812e-001  5.1916972e-001  5.1843712e-001  5.1721612e-001  5.1721612e-001  5.1721612e-001  5.1672772e-001  5.1672772e-001  5.1672772e-001  5.1672772e-001  5.1599512e-001  5.1794872e-001  5.2039072e-001  5.2649573e-001  5.3431013e-001  5.4407814e-001  5.5506716e-001  5.6800977e-001  5.8266178e-001  6.0024420e-001  6.1855922e-001  6.3565324e-001  6.5103785e-001  6.6324786e-001  6.7350427e-001  6.8327228e-001  6.9181929e-001  6.9743590e-001  7.0231990e-001  7.0769231e-001  7.1379731e-001  7.1868132e-001  7.1868132e-001  7.1330891e-001  7.0476190e-001  6.9304029e-001  6.8034188e-001  6.6568987e-001  6.5152625e-001  6.3516484e-001  6.1929182e-001  6.0390720e-001  5.8925519e-001  5.7289377e-001  5.5579976e-001  5.3553114e-001  5.1428571e-001  4.9084249e-001  4.7252747e-001  4.5787546e-001  4.4810745e-001  4.4395604e-001  4.4322344e-001  4.4322344e-001  4.4273504e-001  4.3956044e-001  4.3418803e-001  4.2808303e-001  4.2197802e-001  4.1709402e-001  4.1391941e-001  4.1269841e-001  4.1098901e-001  4.1098901e-001  4.0976801e-001  4.0854701e-001  4.0732601e-001  4.0732601e-001  4.0610501e-001  4.0610501e-001  4.0488400e-001  4.0366300e-001  4.0170940e-001  4.0122100e-001  4.0048840e-001  3.9926740e-001  3.9877900e-001  3.9804640e-001  3.9804640e-001  3.9804640e-001  3.9926740e-001  4.0048840e-001  4.0244200e-001  4.0415140e-001  4.0659341e-001  4.0903541e-001  4.1221001e-001  4.1514042e-001  4.2075702e-001  4.2612943e-001  4.3223443e-001  4.3907204e-001  4.4639805e-001  4.5372405e-001  4.6031746e-001  4.6764347e-001  4.7448107e-001  4.8180708e-001  4.8913309e-001  4.9572650e-001  5.0451770e-001  5.1062271e-001  5.1599512e-001  5.2161172e-001  5.2576313e-001  5.2942613e-001  5.3260073e-001  5.3553114e-001  5.3797314e-001  5.4041514e-001  5.4163614e-001  5.4285714e-001  5.4358974e-001  5.4358974e-001  5.4358974e-001  5.4358974e-001  5.4285714e-001  5.4236874e-001  5.4114774e-001  5.4041514e-001  5.3992674e-001  5.3870574e-001  5.3797314e-001  5.3748474e-001  5.3675214e-001  5.3626374e-001  5.3431013e-001  5.3504274e-001  5.3382173e-001  5.3626374e-001  5.3137973e-001  5.2942613e-001  5.2820513e-001  5.2698413e-001  5.2649573e-001  5.2527473e-001  5.2576313e-001  5.2527473e-001  5.2454212e-001  5.2454212e-001  5.2405372e-001  5.2527473e-001  5.2649573e-001  5.2771673e-001  5.2893773e-001  5.2893773e-001  5.2820513e-001  5.2771673e-001  5.2820513e-001  5.3064713e-001  5.3504274e-001  5.4114774e-001  5.4481074e-001  5.4847375e-001  5.5018315e-001  5.5091575e-001  5.5262515e-001  5.5335775e-001  5.5140415e-001  5.5018315e-001  5.4725275e-001  5.4358974e-001  5.3870574e-001  5.3431013e-001  5.3064713e-001  5.2820513e-001  5.2649573e-001  5.2527473e-001  5.2405372e-001  5.2283272e-001  5.2210012e-001  5.2161172e-001  5.2087912e-001  5.2039072e-001  5.1965812e-001  5.1843712e-001  5.1843712e-001  5.1843712e-001  5.1843712e-001  5.1794872e-001  5.1843712e-001  5.1721612e-001  5.1794872e-001  5.1916972e-001  5.2405372e-001  5.3064713e-001  5.3919414e-001  5.4969475e-001  5.6190476e-001  5.7533578e-001  5.9120879e-001  6.0757021e-001  6.2588523e-001  6.4297924e-001  6.5763126e-001  6.7106227e-001  6.8205128e-001  6.9255189e-001  7.0036630e-001  7.0598291e-001  7.1135531e-001  7.1746032e-001  7.2307692e-001  7.2600733e-001  7.2356532e-001  7.1746032e-001  7.0769231e-001  6.9621490e-001  6.8327228e-001  6.6862027e-001  6.5274725e-001  6.3565324e-001  6.1855922e-001  6.0390720e-001  5.8803419e-001  5.7045177e-001  5.5091575e-001  5.2942613e-001  5.0622711e-001  4.8351648e-001  4.6593407e-001  4.5177045e-001  4.4322344e-001  4.4029304e-001  4.3956044e-001  4.4029304e-001  4.3785104e-001  4.3467643e-001  4.2930403e-001  4.2319902e-001  4.1709402e-001  4.1269841e-001  4.1025641e-001  4.0854701e-001  4.0854701e-001  4.0781441e-001  4.0659341e-001  4.0537241e-001  4.0610501e-001  4.0488400e-001  4.0415140e-001  4.0293040e-001  4.0170940e-001  4.0048840e-001  4.0000000e-001  3.9877900e-001  3.9877900e-001  3.9755800e-001  3.9633700e-001  3.9560440e-001  3.9511600e-001  3.9755800e-001  3.9804640e-001  3.9926740e-001  4.0000000e-001  4.0244200e-001  4.0488400e-001  4.0854701e-001  4.1221001e-001  4.1709402e-001  4.2197802e-001  4.2735043e-001  4.3345543e-001  4.4029304e-001  4.4688645e-001  4.5372405e-001  4.6105006e-001  4.6837607e-001  4.7496947e-001  4.8302808e-001  4.9035409e-001  4.9645910e-001  5.0451770e-001  5.1062271e-001  5.1599512e-001  5.2087912e-001  5.2527473e-001  5.2893773e-001  5.3186813e-001  5.3553114e-001  5.3748474e-001  5.3919414e-001  5.4114774e-001  5.4163614e-001  5.4358974e-001  5.4285714e-001  5.4285714e-001  5.4163614e-001  5.4163614e-001  5.4114774e-001  5.4041514e-001  5.3919414e-001  5.3870574e-001  5.3797314e-001  5.3626374e-001  5.3504274e-001  5.3382173e-001  5.3308913e-001  5.3260073e-001  5.3064713e-001  5.2942613e-001  5.2893773e-001  5.2820513e-001  5.2771673e-001  5.2698413e-001  5.2649573e-001  5.2454212e-001  5.2405372e-001  5.2332112e-001  5.2332112e-001  5.2405372e-001  5.2405372e-001  5.2405372e-001  5.2527473e-001  5.2649573e-001  5.2820513e-001  5.2820513e-001  5.2820513e-001  5.2771673e-001  5.2698413e-001  5.2820513e-001  5.3064713e-001  5.3504274e-001  5.4041514e-001  5.4529915e-001  5.4847375e-001  5.5018315e-001  5.5140415e-001  5.5213675e-001  5.5213675e-001  5.5140415e-001  5.4969475e-001  5.4725275e-001  5.4358974e-001  5.3870574e-001  5.3431013e-001  5.3015873e-001  5.2771673e-001  5.2576313e-001  5.2405372e-001  5.2210012e-001  5.2210012e-001  5.2161172e-001  5.2161172e-001  5.2161172e-001  5.2039072e-001  5.1916972e-001  5.1843712e-001  5.1843712e-001  5.1721612e-001  5.1672772e-001  5.1672772e-001  5.1672772e-001  5.1672772e-001  5.1672772e-001  5.1843712e-001  5.2161172e-001  5.2771673e-001  5.3553114e-001  5.4774115e-001  5.5995116e-001  5.7338217e-001  5.8998779e-001  6.0757021e-001  6.2539683e-001  6.4249084e-001  6.5714286e-001  6.6984127e-001  6.7912088e-001  6.8766789e-001  6.9426129e-001  6.9914530e-001  7.0402930e-001  7.0964591e-001  7.1501832e-001  7.1941392e-001  7.1941392e-001  7.1330891e-001  7.0354090e-001  6.9059829e-001  6.7838828e-001  6.6446886e-001  6.4981685e-001  6.3321123e-001  6.1733822e-001  6.0268620e-001  5.8803419e-001  5.7167277e-001  5.5335775e-001  5.3382173e-001  5.1184371e-001  4.8913309e-001  4.7081807e-001  4.5616606e-001  4.4639805e-001  4.4200244e-001  4.4151404e-001  4.4078144e-001  4.3956044e-001  4.3589744e-001  4.3052503e-001  4.2442002e-001  4.1831502e-001  4.1465201e-001  4.1147741e-001  4.0976801e-001  4.0854701e-001  4.0781441e-001  4.0610501e-001  4.0610501e-001  4.0415140e-001  4.0293040e-001  4.0122100e-001  4.0000000e-001  3.9877900e-001  3.9877900e-001  3.9804640e-001  3.9755800e-001  3.9633700e-001  3.9560440e-001  3.9511600e-001  3.9438339e-001  3.9511600e-001  3.9560440e-001  3.9682540e-001  3.9755800e-001  3.9804640e-001  4.0048840e-001  4.0366300e-001  4.0659341e-001  4.1098901e-001  4.1465201e-001  4.2002442e-001  4.2564103e-001  4.3174603e-001  4.3785104e-001  4.4395604e-001  4.4932845e-001  4.5738706e-001  4.6471306e-001  4.7252747e-001  4.7985348e-001  4.8717949e-001  4.9401709e-001  5.0256410e-001  5.0866911e-001  5.1355311e-001  5.1843712e-001  5.2332112e-001  5.2771673e-001  5.3064713e-001  5.3382173e-001  5.3626374e-001  5.3797314e-001  5.3919414e-001  5.3992674e-001  5.4041514e-001  5.4041514e-001  5.4041514e-001  5.4041514e-001  5.3992674e-001  5.3919414e-001  5.3748474e-001  5.3626374e-001  5.3504274e-001  5.3431013e-001  5.3308913e-001  5.3308913e-001  5.3186813e-001  5.3137973e-001  5.3064713e-001  5.3015873e-001  5.2893773e-001  5.2893773e-001  5.2771673e-001  5.2698413e-001  5.2527473e-001  5.2454212e-001  5.2332112e-001  5.2283272e-001  5.2161172e-001  5.2039072e-001  5.1965812e-001  5.1965812e-001  5.2161172e-001  5.2210012e-001  5.2405372e-001  5.2527473e-001  5.2698413e-001  5.2771673e-001  5.2820513e-001  5.2649573e-001  5.2698413e-001  5.2820513e-001  5.3186813e-001  5.3675214e-001  5.4163614e-001  5.4603175e-001  5.4896215e-001  5.4969475e-001  5.4969475e-001  5.4969475e-001  5.4969475e-001  5.4847375e-001  5.4652015e-001  5.4358974e-001  5.3919414e-001  5.3504274e-001  5.3064713e-001  5.2771673e-001  5.2454212e-001  5.2332112e-001  5.2161172e-001  5.2087912e-001  5.1965812e-001  5.2039072e-001  5.2039072e-001  5.1965812e-001  5.1843712e-001  5.1843712e-001  5.1794872e-001  5.1721612e-001  5.1672772e-001  5.1672772e-001  5.1599512e-001  5.1599512e-001  5.1672772e-001  5.1721612e-001  5.2087912e-001  5.2649573e-001  5.3553114e-001  5.4652015e-001  5.5824176e-001  5.7094017e-001  5.8681319e-001  6.0463980e-001  6.2344322e-001  6.4126984e-001  6.5641026e-001  6.7057387e-001  6.8156288e-001  6.9059829e-001  6.9914530e-001  7.0476190e-001  7.0964591e-001  7.1575092e-001  7.2185592e-001  7.2551893e-001  7.2551893e-001  7.1990232e-001  7.1013431e-001  6.9987790e-001  6.8766789e-001  6.7423687e-001  6.5763126e-001  6.4175824e-001  6.2466422e-001  6.0952381e-001  5.9365079e-001  5.7704518e-001  5.5750916e-001  5.3675214e-001  5.1428571e-001  4.9084249e-001  4.7203907e-001  4.5665446e-001  4.4639805e-001  4.4273504e-001  4.4151404e-001  4.4151404e-001  4.4029304e-001  4.3663004e-001  4.3101343e-001  4.2564103e-001  4.1953602e-001  4.1391941e-001  4.1147741e-001  4.0903541e-001  4.0854701e-001  4.0732601e-001  4.0659341e-001  4.0610501e-001  4.0537241e-001  4.0415140e-001  4.0366300e-001  4.0244200e-001  4.0122100e-001  4.0000000e-001  3.9877900e-001  3.9755800e-001  3.9633700e-001  3.9511600e-001  3.9511600e-001  3.9438339e-001  3.9511600e-001  3.9438339e-001  3.9511600e-001  3.9633700e-001  3.9804640e-001  4.0000000e-001  4.0244200e-001  4.0610501e-001  4.0976801e-001  4.1343101e-001  4.1709402e-001  4.2319902e-001  4.2857143e-001  4.3540904e-001  4.4151404e-001  4.4932845e-001  4.5665446e-001  4.6471306e-001  4.7203907e-001  4.7985348e-001  4.8669109e-001  4.9401709e-001  5.0207570e-001  5.0866911e-001  5.1477411e-001  5.1965812e-001  5.2405372e-001  5.2820513e-001  5.3186813e-001  5.3431013e-001  5.3675214e-001  5.3870574e-001  5.4041514e-001  5.4114774e-001  5.4236874e-001  5.4285714e-001  5.4236874e-001  5.4163614e-001  5.4163614e-001  5.4114774e-001  5.3992674e-001  5.3870574e-001  5.3870574e-001  5.3748474e-001  5.3675214e-001  5.3431013e-001  5.3308913e-001  5.3186813e-001  5.3137973e-001  5.3064713e-001  5.3015873e-001  5.2893773e-001  5.2771673e-001  5.2698413e-001  5.2698413e-001  5.2576313e-001  5.2454212e-001  5.2405372e-001  5.2332112e-001  5.2283272e-001  5.2087912e-001  5.1965812e-001  5.1916972e-001  5.1965812e-001  5.2087912e-001  5.2332112e-001  5.2405372e-001  5.2576313e-001  5.2649573e-001  5.2649573e-001  5.2649573e-001  5.2771673e-001  5.2893773e-001  5.3308913e-001  5.3797314e-001  5.4358974e-001  5.4774115e-001  5.5018315e-001  5.5140415e-001  5.5140415e-001  5.5140415e-001  5.5140415e-001  5.5091575e-001  5.4847375e-001  5.4603175e-001  5.4236874e-001  5.3797314e-001  5.3382173e-001  5.3064713e-001  5.2771673e-001  5.2576313e-001  5.2405372e-001  5.2210012e-001  5.2087912e-001  5.2087912e-001  5.2087912e-001  5.2039072e-001  5.1965812e-001  5.1916972e-001  5.1916972e-001  5.1843712e-001  5.1916972e-001  5.1843712e-001  5.1721612e-001  5.1721612e-001  5.1721612e-001  5.1843712e-001  5.2087912e-001  5.2649573e-001  5.3504274e-001  5.4529915e-001  5.5750916e-001  5.7045177e-001  5.8510379e-001  6.0219780e-001  6.2173382e-001  6.3931624e-001  6.5592186e-001  6.6862027e-001  6.8083028e-001  6.9010989e-001  6.9792430e-001  7.0280830e-001  7.0769231e-001  7.1379731e-001  7.1990232e-001  7.2478632e-001  7.2600733e-001  7.2112332e-001  7.1257631e-001  7.0158730e-001  6.9010989e-001  6.7716728e-001  6.6129426e-001  6.4542125e-001  6.2832723e-001  6.1245421e-001  5.9780220e-001  5.8144078e-001  5.6361416e-001  5.4285714e-001  5.1965812e-001  4.9572650e-001  4.7496947e-001  4.5909646e-001  4.4810745e-001  4.4322344e-001  4.4078144e-001  4.4078144e-001  4.3907204e-001  4.3589744e-001  4.3101343e-001  4.2490842e-001  4.1831502e-001  4.1343101e-001  4.1025641e-001  4.0903541e-001  4.0781441e-001  4.0732601e-001  4.0659341e-001  4.0488400e-001  4.0488400e-001  4.0415140e-001  4.0366300e-001  4.0244200e-001  4.0122100e-001  4.0048840e-001  3.9926740e-001  3.9755800e-001  3.9755800e-001  3.9682540e-001  3.9633700e-001  3.9511600e-001  3.9560440e-001  3.9560440e-001  3.9682540e-001  3.9755800e-001  3.9926740e-001  4.0048840e-001  4.0244200e-001  4.0610501e-001  4.0854701e-001  4.1221001e-001  4.1709402e-001  4.2319902e-001  4.2930403e-001  4.3540904e-001  4.4200244e-001  4.4884005e-001  4.5543346e-001  4.6227106e-001  4.7008547e-001  4.7814408e-001  4.8547009e-001  4.9279609e-001  5.0134310e-001  5.0744811e-001  5.1233211e-001  5.1794872e-001  5.2210012e-001  5.2649573e-001  5.2942613e-001  5.3308913e-001  5.3553114e-001  5.3748474e-001  5.3870574e-001  5.4041514e-001  5.4114774e-001  5.4163614e-001  5.4163614e-001  5.4114774e-001  5.4114774e-001  5.4041514e-001  5.3919414e-001  5.3870574e-001  5.3797314e-001  5.3675214e-001  5.3626374e-001  5.3431013e-001  5.3431013e-001  5.3431013e-001  5.3308913e-001  5.3186813e-001  5.3137973e-001  5.3015873e-001  5.2942613e-001  5.2893773e-001  5.2698413e-001  5.2576313e-001  5.2454212e-001  5.2405372e-001  5.2283272e-001  5.2283272e-001  5.2210012e-001  5.2161172e-001  5.2087912e-001  5.2087912e-001  5.2087912e-001  5.2161172e-001  5.2332112e-001  5.2527473e-001  5.2649573e-001  5.2698413e-001  5.2649573e-001  5.2698413e-001  5.2771673e-001  5.3015873e-001  5.3382173e-001  5.3919414e-001  5.4358974e-001  5.4774115e-001  5.5091575e-001  5.5213675e-001  5.5262515e-001  5.5262515e-001  5.5213675e-001  5.5091575e-001  5.4774115e-001  5.4529915e-001  5.4163614e-001  5.3748474e-001  5.3308913e-001  5.2893773e-001  5.2649573e-001  5.2405372e-001  5.2283272e-001  5.2087912e-001  5.1965812e-001  5.1916972e-001  5.1843712e-001  5.1794872e-001  5.1721612e-001  5.1599512e-001  5.1672772e-001  5.1599512e-001  5.1599512e-001  5.1550672e-001  5.1477411e-001  5.1428571e-001  5.1428571e-001  5.1599512e-001  5.1843712e-001  5.2332112e-001  5.3015873e-001  5.4041514e-001  5.5213675e-001  5.6556777e-001  5.8070818e-001  5.9853480e-001  6.1733822e-001  6.3565324e-001  6.5225885e-001  6.6617827e-001  6.7838828e-001  6.8888889e-001  6.9743590e-001  7.0354090e-001  7.0769231e-001  7.1379731e-001  7.2063492e-001  7.2600733e-001  7.2722833e-001  7.2478632e-001  7.1575092e-001  7.0525031e-001  6.9304029e-001  6.7960928e-001  6.6446886e-001  6.4859585e-001  6.3199023e-001  6.1611722e-001  6.0097680e-001  5.8437118e-001  5.6605617e-001  5.4529915e-001  5.2283272e-001  5.0012210e-001  4.7863248e-001  4.6227106e-001  4.5006105e-001  4.4395604e-001  4.4151404e-001  4.4078144e-001  4.4029304e-001  4.3663004e-001  4.3174603e-001  4.2612943e-001  4.1953602e-001  4.1465201e-001  4.1098901e-001  4.0781441e-001  4.0659341e-001  4.0537241e-001  4.0488400e-001  4.0415140e-001  4.0293040e-001  4.0244200e-001  4.0170940e-001  4.0048840e-001  3.9926740e-001  3.9877900e-001  3.9755800e-001  3.9755800e-001  3.9633700e-001  3.9560440e-001  3.9438339e-001  3.9511600e-001  3.9438339e-001  3.9511600e-001  3.9560440e-001  3.9682540e-001  3.9877900e-001  4.0048840e-001  4.0244200e-001  4.0537241e-001  4.0854701e-001  4.1221001e-001  4.1636142e-001  4.2197802e-001  4.2735043e-001  4.3418803e-001  4.4151404e-001  4.4761905e-001  4.5494505e-001  4.6227106e-001  4.6959707e-001  4.7692308e-001  4.8473748e-001  4.9157509e-001  5.0085470e-001  5.0695971e-001  5.1355311e-001  5.1843712e-001  5.2332112e-001  5.2649573e-001  5.3015873e-001  5.3308913e-001  5.3553114e-001  5.3797314e-001  5.3992674e-001  5.4163614e-001  5.4236874e-001  5.4285714e-001  5.4285714e-001  5.4236874e-001  5.4163614e-001  5.4163614e-001  5.4163614e-001  5.4114774e-001  5.3919414e-001  5.3870574e-001  5.3748474e-001  5.3626374e-001  5.3431013e-001  5.3431013e-001  5.3308913e-001  5.3186813e-001  5.3137973e-001  5.3064713e-001  5.2942613e-001  5.2820513e-001  5.2698413e-001  5.2649573e-001  5.2527473e-001  5.2454212e-001  5.2454212e-001  5.2332112e-001  5.2210012e-001  5.2210012e-001  5.2161172e-001  5.2161172e-001  5.2161172e-001  5.2210012e-001  5.2332112e-001  5.2454212e-001  5.2649573e-001  5.2771673e-001  5.2820513e-001  5.2771673e-001  5.2820513e-001  5.2942613e-001  5.3308913e-001  5.3870574e-001  5.4407814e-001  5.4847375e-001  5.5213675e-001  5.5335775e-001  5.5384615e-001  5.5384615e-001  5.5335775e-001  5.5262515e-001  5.5091575e-001  5.4774115e-001  5.4358974e-001  5.3919414e-001  5.3504274e-001  5.3186813e-001  5.2942613e-001  5.2820513e-001  5.2576313e-001  5.2454212e-001  5.2405372e-001  5.2283272e-001  5.2210012e-001  5.2161172e-001  5.2087912e-001  5.2039072e-001  5.1916972e-001  5.1916972e-001  5.1843712e-001  5.1794872e-001  5.1721612e-001  5.1721612e-001  5.1672772e-001  5.1843712e-001  5.2039072e-001  5.2405372e-001  5.3015873e-001  5.3919414e-001  5.5018315e-001  5.6239316e-001  5.7655678e-001  5.9291819e-001  6.1196581e-001  6.3150183e-001  6.4981685e-001  6.6446886e-001  6.7716728e-001  6.8766789e-001  6.9670330e-001  7.0402930e-001  7.0891331e-001  7.1379731e-001  7.2185592e-001  7.2673993e-001  7.3040293e-001  7.2967033e-001  7.2600733e-001  7.1330891e-001  7.0158730e-001  6.8888889e-001  6.7350427e-001  6.5641026e-001  6.3931624e-001  6.2222222e-001  6.0708181e-001  5.9047619e-001  5.7289377e-001  5.5262515e-001  5.3064713e-001  5.0744811e-001  4.8473748e-001  4.6593407e-001  4.5128205e-001  4.4200244e-001  4.3907204e-001  4.3907204e-001  4.3711844e-001  4.3589744e-001  4.3174603e-001  4.2612943e-001  4.1953602e-001  4.1391941e-001  4.0976801e-001  4.0732601e-001  4.0537241e-001  4.0488400e-001  4.0366300e-001  4.0293040e-001  4.0293040e-001  4.0244200e-001  4.0122100e-001  4.0000000e-001  3.9926740e-001  3.9755800e-001  3.9755800e-001  3.9682540e-001  3.9633700e-001  3.9511600e-001  3.9511600e-001  3.9438339e-001  3.9389499e-001  3.9316239e-001  3.9438339e-001  3.9511600e-001  3.9633700e-001  3.9877900e-001  4.0122100e-001  4.0415140e-001  4.0732601e-001  4.1098901e-001  4.1465201e-001  4.1953602e-001  4.2564103e-001  4.3174603e-001  4.3907204e-001  4.4566545e-001  4.5250305e-001  4.5982906e-001  4.6642247e-001  4.7496947e-001  4.8229548e-001  4.9035409e-001  4.9694750e-001  5.0500611e-001  5.1111111e-001  5.1672772e-001  5.2161172e-001  5.2649573e-001  5.2942613e-001  5.3308913e-001  5.3626374e-001  5.3870574e-001  5.3992674e-001  5.4114774e-001  5.4236874e-001  5.4285714e-001  5.4358974e-001  5.4285714e-001  5.4236874e-001  5.4236874e-001  5.4163614e-001  5.4041514e-001  5.3919414e-001  5.3870574e-001  5.3675214e-001  5.3553114e-001  5.3553114e-001  5.3431013e-001  5.3504274e-001  5.3382173e-001  5.3308913e-001  5.3260073e-001  5.3137973e-001  5.3015873e-001  5.2942613e-001  5.2820513e-001  5.2771673e-001  5.2649573e-001  5.2527473e-001  5.2454212e-001  5.2405372e-001  5.2405372e-001  5.2405372e-001  5.2454212e-001  5.2454212e-001  5.2527473e-001  5.2698413e-001  5.2820513e-001  5.2893773e-001  5.2893773e-001  5.2893773e-001  5.2893773e-001  5.2942613e-001  5.3308913e-001  5.3870574e-001  5.4358974e-001  5.4847375e-001  5.5140415e-001  5.5213675e-001  5.5262515e-001  5.5262515e-001  5.5262515e-001  5.5140415e-001  5.4896215e-001  5.4652015e-001  5.4285714e-001  5.3797314e-001  5.3382173e-001  5.3015873e-001  5.2771673e-001  5.2576313e-001  5.2405372e-001  5.2210012e-001  5.2087912e-001  5.1965812e-001  5.1965812e-001  5.1916972e-001  5.1794872e-001  5.1843712e-001  5.1794872e-001  5.1794872e-001  5.1672772e-001  5.1672772e-001  5.1599512e-001  5.1599512e-001  5.1599512e-001  5.1672772e-001  5.1843712e-001  5.2210012e-001  5.2942613e-001  5.4041514e-001  5.5140415e-001  5.6483516e-001  5.7948718e-001  5.9658120e-001  6.1562882e-001  6.3394383e-001  6.5152625e-001  6.6617827e-001  6.7838828e-001  6.8937729e-001  6.9670330e-001  7.0280830e-001  7.0720391e-001  7.1208791e-001  7.1868132e-001  7.2429792e-001  7.2722833e-001  7.2478632e-001  7.1868132e-001  7.0769231e-001  6.9548230e-001  6.8205128e-001  6.6739927e-001  6.5152625e-001  6.3516484e-001  6.1855922e-001  6.0390720e-001  5.8876679e-001  5.7045177e-001  5.4969475e-001  5.2698413e-001  5.0451770e-001  4.8058608e-001  4.6349206e-001  4.5006105e-001  4.4273504e-001  4.3956044e-001  4.3833944e-001  4.3663004e-001  4.3467643e-001  4.2979243e-001  4.2442002e-001  4.1831502e-001  4.1269841e-001  4.0781441e-001  4.0610501e-001  4.0488400e-001  4.0415140e-001  4.0366300e-001  4.0366300e-001  4.0244200e-001  4.0170940e-001  4.0122100e-001  4.0048840e-001  4.0000000e-001  3.9926740e-001  3.9877900e-001  3.9682540e-001  3.9633700e-001  3.9511600e-001  3.9511600e-001  3.9438339e-001  3.9511600e-001  3.9511600e-001  3.9560440e-001  3.9682540e-001  3.9804640e-001  3.9926740e-001  4.0048840e-001  4.0244200e-001  4.0537241e-001  4.0976801e-001  4.1465201e-001  4.1953602e-001  4.2490842e-001  4.3101343e-001  4.3711844e-001  4.4444444e-001  4.5128205e-001  4.5909646e-001  4.6642247e-001  4.7374847e-001  4.8107448e-001  4.8913309e-001  4.9572650e-001  5.0451770e-001  5.0989011e-001  5.1550672e-001  5.1965812e-001  5.2527473e-001  5.2893773e-001  5.3260073e-001  5.3431013e-001  5.3675214e-001  5.3797314e-001  5.3919414e-001  5.3992674e-001  5.4041514e-001  5.4041514e-001  5.4114774e-001  5.4041514e-001  5.3992674e-001  5.3992674e-001  5.3870574e-001  5.3797314e-001  5.3675214e-001  5.3553114e-001  5.3431013e-001  5.3382173e-001  5.3308913e-001  5.3186813e-001  5.3137973e-001  5.3064713e-001  5.3015873e-001  5.2942613e-001  5.2820513e-001  5.2698413e-001  5.2576313e-001  5.2454212e-001  5.2405372e-001  5.2332112e-001  5.2161172e-001  5.2087912e-001  5.2161172e-001  5.2087912e-001  5.2161172e-001  5.2210012e-001  5.2332112e-001  5.2405372e-001  5.2527473e-001  5.2649573e-001  5.2698413e-001  5.2698413e-001  5.2698413e-001  5.2820513e-001  5.3015873e-001  5.3382173e-001  5.3870574e-001  5.4358974e-001  5.4774115e-001  5.4969475e-001  5.5140415e-001  5.5140415e-001  5.5140415e-001  5.5091575e-001  5.4969475e-001  5.4652015e-001  5.4358974e-001  5.3992674e-001  5.3504274e-001  5.3137973e-001  5.2820513e-001  5.2527473e-001  5.2283272e-001  5.2087912e-001  5.1965812e-001  5.2039072e-001  5.1965812e-001  5.1916972e-001  5.1843712e-001  5.1843712e-001  5.1721612e-001  5.1794872e-001  5.1721612e-001  5.1721612e-001  5.1599512e-001  5.1599512e-001  5.1477411e-001  5.1550672e-001  5.1672772e-001  5.2039072e-001  5.2527473e-001  5.3308913e-001  5.4358974e-001  5.5628816e-001  5.7045177e-001  5.8632479e-001  6.0390720e-001  6.2295482e-001  6.4175824e-001  6.5836386e-001  6.7301587e-001  6.8522589e-001  6.9426129e-001  7.0158730e-001  7.0720391e-001  7.1135531e-001  7.1746032e-001  7.2429792e-001  7.2918193e-001  7.2967033e-001  7.2673993e-001  7.1819292e-001  7.0720391e-001  6.9426129e-001  6.7960928e-001  6.6251526e-001  6.4664225e-001  6.2905983e-001  6.1367521e-001  5.9853480e-001  5.8144078e-001  5.6239316e-001  5.4041514e-001  5.1672772e-001  4.9279609e-001  4.7326007e-001  4.5665446e-001  4.4566545e-001  4.4029304e-001  4.3907204e-001  4.3785104e-001  4.3663004e-001  4.3345543e-001  4.2930403e-001  4.2197802e-001  4.1514042e-001  4.0976801e-001  4.0610501e-001  4.0415140e-001  4.0366300e-001  4.0244200e-001  4.0170940e-001  4.0122100e-001  4.0000000e-001  3.9926740e-001  3.9804640e-001  3.9755800e-001  3.9682540e-001  3.9560440e-001  3.9438339e-001  3.9389499e-001  3.9267399e-001  3.9194139e-001  3.9194139e-001  3.9194139e-001  3.9194139e-001  3.9194139e-001  3.9267399e-001  3.9316239e-001  3.9438339e-001  3.9682540e-001  3.9926740e-001  4.0293040e-001  4.0659341e-001  4.1147741e-001  4.1636142e-001  4.2197802e-001  4.2686203e-001  4.3345543e-001  4.4078144e-001  4.4761905e-001  4.5543346e-001  4.6227106e-001  4.6959707e-001  4.7692308e-001  4.8473748e-001  4.9206349e-001  5.0134310e-001  5.0744811e-001  5.1428571e-001  5.1916972e-001  5.2405372e-001  5.2820513e-001  5.3186813e-001  5.3431013e-001  5.3675214e-001  5.3870574e-001  5.4041514e-001  5.4285714e-001  5.4358974e-001  5.4407814e-001  5.4481074e-001  5.4358974e-001  5.4358974e-001  5.4236874e-001  5.4163614e-001  5.4041514e-001  5.3992674e-001  5.3870574e-001  5.3748474e-001  5.3675214e-001  5.3675214e-001  5.3626374e-001  5.3504274e-001  5.3431013e-001  5.3308913e-001  5.3260073e-001  5.3260073e-001  5.3260073e-001  5.3137973e-001  5.3064713e-001  5.2942613e-001  5.2893773e-001  5.2771673e-001  5.2698413e-001  5.2527473e-001  5.2527473e-001  5.2454212e-001  5.2527473e-001  5.2527473e-001  5.2576313e-001  5.2698413e-001  5.2893773e-001  5.2942613e-001  5.3015873e-001  5.3015873e-001  5.2942613e-001  5.3015873e-001  5.3186813e-001  5.3626374e-001  5.4114774e-001  5.4725275e-001  5.5213675e-001  5.5506716e-001  5.5579976e-001  5.5506716e-001  5.5506716e-001  5.5457875e-001  5.5335775e-001  5.5140415e-001  5.4896215e-001  5.4529915e-001  5.3992674e-001  5.3675214e-001  5.3260073e-001  5.3015873e-001  5.2698413e-001  5.2576313e-001  5.2405372e-001  5.2405372e-001  5.2332112e-001  5.2283272e-001  5.2332112e-001  5.2210012e-001  5.2161172e-001  5.2039072e-001  5.1916972e-001  5.1916972e-001  5.1916972e-001  5.1843712e-001  5.1843712e-001  5.1843712e-001  5.1916972e-001  5.2087912e-001  5.2649573e-001  5.3308913e-001  5.4285714e-001  5.5457875e-001  5.6849817e-001  5.8315018e-001  6.0024420e-001  6.1978022e-001  6.3931624e-001  6.5641026e-001  6.7106227e-001  6.8327228e-001  6.9377289e-001  7.0231990e-001  7.0769231e-001  7.1208791e-001  7.1746032e-001  7.2429792e-001  7.2967033e-001  7.3284493e-001  7.2967033e-001  7.2234432e-001  7.1135531e-001  6.9914530e-001  6.8571429e-001  6.7106227e-001  6.5470085e-001  6.3760684e-001  6.2100122e-001  6.0634921e-001  5.8998779e-001  5.7045177e-001  5.5018315e-001  5.2698413e-001  5.0329670e-001  4.8058608e-001  4.6275946e-001  4.5006105e-001  4.4273504e-001  4.4078144e-001  4.4029304e-001  4.3833944e-001  4.3589744e-001  4.3101343e-001  4.2442002e-001  4.1709402e-001  4.1221001e-001  4.0781441e-001  4.0610501e-001  4.0488400e-001  4.0488400e-001  4.0415140e-001  4.0293040e-001  4.0293040e-001  4.0244200e-001  4.0122100e-001  3.9926740e-001  3.9804640e-001  3.9682540e-001  3.9511600e-001  3.9438339e-001  3.9389499e-001  3.9316239e-001  3.9316239e-001  3.9316239e-001  3.9194139e-001  3.9267399e-001  3.9316239e-001  3.9438339e-001  3.9511600e-001  3.9682540e-001  3.9877900e-001  4.0122100e-001  4.0488400e-001  4.0854701e-001  4.1391941e-001  4.1831502e-001  4.2368742e-001  4.3052503e-001  4.3663004e-001  4.4444444e-001  4.5177045e-001  4.5982906e-001  4.6764347e-001  4.7496947e-001  4.8302808e-001  4.9035409e-001  4.9694750e-001  5.0500611e-001  5.1111111e-001  5.1672772e-001  5.2161172e-001  5.2576313e-001  5.2942613e-001  5.3260073e-001  5.3431013e-001  5.3748474e-001  5.3870574e-001  5.3992674e-001  5.4163614e-001  5.4358974e-001  5.4285714e-001  5.4285714e-001  5.4236874e-001  5.4114774e-001  5.4041514e-001  5.3992674e-001  5.3919414e-001  5.3870574e-001  5.3748474e-001  5.3675214e-001  5.3553114e-001  5.3431013e-001  5.3382173e-001  5.3308913e-001  5.3137973e-001  5.3015873e-001  5.2942613e-001  5.2893773e-001  5.2820513e-001  5.2698413e-001  5.2698413e-001  5.2576313e-001  5.2405372e-001  5.2283272e-001  5.2210012e-001  5.2039072e-001  5.2039072e-001  5.1916972e-001  5.1916972e-001  5.1965812e-001  5.2161172e-001  5.2283272e-001  5.2454212e-001  5.2576313e-001  5.2698413e-001  5.2698413e-001  5.2649573e-001  5.2698413e-001  5.2820513e-001  5.3137973e-001  5.3626374e-001  5.4163614e-001  5.4652015e-001  5.5018315e-001  5.5213675e-001  5.5384615e-001  5.5335775e-001  5.5384615e-001  5.5262515e-001  5.5091575e-001  5.4774115e-001  5.4407814e-001  5.3919414e-001  5.3504274e-001  5.3137973e-001  5.2893773e-001  5.2698413e-001  5.2454212e-001  5.2332112e-001  5.2210012e-001  5.2161172e-001  5.2161172e-001  5.2161172e-001  5.2087912e-001  5.2087912e-001  5.2087912e-001  5.1965812e-001  5.1916972e-001  5.1916972e-001  5.1843712e-001  5.1843712e-001  5.1794872e-001  5.1843712e-001  5.1916972e-001  5.2405372e-001  5.3015873e-001  5.3919414e-001  5.5091575e-001  5.6361416e-001  5.7826618e-001  5.9536020e-001  6.1489621e-001  6.3443223e-001  6.5347985e-001  6.6813187e-001  6.8205128e-001  6.9304029e-001  7.0158730e-001  7.0891331e-001  7.1330891e-001  7.1819292e-001  7.2478632e-001  7.3089133e-001  7.3455433e-001  7.3333333e-001  7.2722833e-001  7.1697192e-001  7.0525031e-001  6.9181929e-001  6.7716728e-001  6.6007326e-001  6.4371184e-001  6.2710623e-001  6.1196581e-001  5.9487179e-001  5.7655678e-001  5.5628816e-001  5.3308913e-001  5.0989011e-001  4.8595849e-001  4.6715507e-001  4.5177045e-001  4.4273504e-001  4.3907204e-001  4.3907204e-001  4.3711844e-001  4.3540904e-001  4.3174603e-001  4.2612943e-001  4.1880342e-001  4.1269841e-001  4.0854701e-001  4.0659341e-001  4.0488400e-001  4.0415140e-001  4.0415140e-001  4.0293040e-001  4.0170940e-001  4.0048840e-001  3.9877900e-001  3.9877900e-001  3.9755800e-001  3.9633700e-001  3.9511600e-001  3.9389499e-001  3.9267399e-001  3.9194139e-001  3.9194139e-001  3.9145299e-001  3.9194139e-001  3.9267399e-001  3.9316239e-001  3.9389499e-001  3.9438339e-001  3.9633700e-001  3.9877900e-001  4.0122100e-001  4.0537241e-001  4.0903541e-001  4.1391941e-001  4.1831502e-001  4.2490842e-001  4.3052503e-001  4.3711844e-001  4.4395604e-001  4.5128205e-001  4.5738706e-001  4.6520147e-001  4.7326007e-001  4.8058608e-001  4.8840049e-001  4.9523810e-001  5.0329670e-001  5.0940171e-001  5.1477411e-001  5.2039072e-001  5.2576313e-001  5.2942613e-001  5.3308913e-001  5.3553114e-001  5.3797314e-001  5.3992674e-001  5.4163614e-001  5.4285714e-001  5.4407814e-001  5.4358974e-001  5.4407814e-001  5.4358974e-001  5.4358974e-001  5.4236874e-001  5.4114774e-001  5.3992674e-001  5.3870574e-001  5.3870574e-001  5.3870574e-001  5.3797314e-001  5.3748474e-001  5.3675214e-001  5.3504274e-001  5.3431013e-001  5.3308913e-001  5.3186813e-001  5.3064713e-001  5.2942613e-001  5.2893773e-001  5.2820513e-001  5.2771673e-001  5.2698413e-001  5.2649573e-001  5.2649573e-001  5.2454212e-001  5.2405372e-001  5.2332112e-001  5.2210012e-001  5.2161172e-001  5.2161172e-001  5.2332112e-001  5.2454212e-001  5.2649573e-001  5.2771673e-001  5.2820513e-001  5.2893773e-001  5.2942613e-001  5.3015873e-001  5.3186813e-001  5.3382173e-001  5.3870574e-001  5.4407814e-001  5.4896215e-001  5.5213675e-001  5.5384615e-001  5.5384615e-001  5.5457875e-001  5.5457875e-001  5.5335775e-001  5.5140415e-001  5.4847375e-001  5.4481074e-001  5.4041514e-001  5.3626374e-001  5.3260073e-001  5.2942613e-001  5.2698413e-001  5.2454212e-001  5.2332112e-001  5.2332112e-001  5.2210012e-001  5.2283272e-001  5.2210012e-001  5.2210012e-001  5.2161172e-001  5.2161172e-001  5.2039072e-001  5.1916972e-001  5.1916972e-001  5.1843712e-001  5.1843712e-001  5.1843712e-001  5.1843712e-001  5.2087912e-001  5.2405372e-001  5.3064713e-001  5.3992674e-001  5.5140415e-001  5.6361416e-001  5.7704518e-001  5.9365079e-001  6.1245421e-001  6.3272283e-001  6.5152625e-001  6.6691087e-001  6.7960928e-001  6.9010989e-001  6.9865690e-001  7.0525031e-001  7.0964591e-001  7.1452991e-001  7.2063492e-001  7.2673993e-001  7.2967033e-001  7.2918193e-001  7.2356532e-001  7.1452991e-001  7.0158730e-001  6.8937729e-001  6.7350427e-001  6.5714286e-001  6.4053724e-001  6.2417582e-001  6.0879121e-001  5.9291819e-001  5.7460317e-001  5.5506716e-001  5.3260073e-001  5.0940171e-001  4.8669109e-001  4.6837607e-001  4.5372405e-001  4.4444444e-001  4.4078144e-001  4.4029304e-001  4.3907204e-001  4.3711844e-001  4.3296703e-001  4.2735043e-001  4.2197802e-001  4.1514042e-001  4.1098901e-001  4.0732601e-001  4.0610501e-001  4.0488400e-001  4.0488400e-001  4.0415140e-001  4.0488400e-001  4.0293040e-001  4.0244200e-001  4.0122100e-001  4.0000000e-001  3.9877900e-001  3.9804640e-001  3.9682540e-001  3.9511600e-001  3.9438339e-001  3.9316239e-001  3.9267399e-001  3.9267399e-001  3.9267399e-001  3.9389499e-001  3.9389499e-001  3.9438339e-001  3.9633700e-001  3.9804640e-001  4.0122100e-001  4.0366300e-001  4.0732601e-001  4.1147741e-001  4.1636142e-001  4.2197802e-001  4.2735043e-001  4.3345543e-001  4.4151404e-001  4.4810745e-001  4.5543346e-001  4.6275946e-001  4.6959707e-001  4.7570208e-001  4.8351648e-001  4.9035409e-001  4.9768010e-001  5.0622711e-001  5.1184371e-001  5.1794872e-001  5.2210012e-001  5.2649573e-001  5.2942613e-001  5.3186813e-001  5.3382173e-001  5.3626374e-001  5.3748474e-001  5.3870574e-001  5.3992674e-001  5.4041514e-001  5.4114774e-001  5.4041514e-001  5.4041514e-001  5.3992674e-001  5.3870574e-001  5.3797314e-001  5.3626374e-001  5.3553114e-001  5.3553114e-001  5.3553114e-001  5.3431013e-001  5.3382173e-001  5.3186813e-001  5.3015873e-001  5.2942613e-001  5.2893773e-001  5.2820513e-001  5.2698413e-001  5.2698413e-001  5.2649573e-001  5.2454212e-001  5.2332112e-001  5.2283272e-001  5.2210012e-001  5.2161172e-001  5.2039072e-001  5.2039072e-001  5.2039072e-001  5.2087912e-001  5.2161172e-001  5.2283272e-001  5.2405372e-001  5.2527473e-001  5.2576313e-001  5.2576313e-001  5.2527473e-001  5.2576313e-001  5.2820513e-001  5.3186813e-001  5.3748474e-001  5.4285714e-001  5.4725275e-001  5.4896215e-001  5.5091575e-001  5.5091575e-001  5.5140415e-001  5.5213675e-001  5.5091575e-001  5.4774115e-001  5.4481074e-001  5.4041514e-001  5.3553114e-001  5.3137973e-001  5.2820513e-001  5.2576313e-001  5.2405372e-001  5.2210012e-001  5.2161172e-001  5.2039072e-001  5.1965812e-001  5.1965812e-001  5.1916972e-001  5.1916972e-001  5.1916972e-001  5.1843712e-001  5.1843712e-001  5.1794872e-001  5.1721612e-001  5.1721612e-001  5.1672772e-001  5.1721612e-001  5.1794872e-001  5.2039072e-001  5.2454212e-001  5.3260073e-001  5.4163614e-001  5.5384615e-001  5.6678877e-001  5.8266178e-001  6.0024420e-001  6.1978022e-001  6.3931624e-001  6.5641026e-001  6.7179487e-001  6.8449328e-001  6.9426129e-001  7.0280830e-001  7.0842491e-001  7.1330891e-001  7.1868132e-001  7.2551893e-001  7.3089133e-001  7.3333333e-001  7.3162393e-001  7.2356532e-001  7.1257631e-001  7.0036630e-001  6.8644689e-001  6.6984127e-001  6.5396825e-001  6.3687424e-001  6.2100122e-001  6.0512821e-001  5.8876679e-001  5.6971917e-001  5.4896215e-001  5.2649573e-001  5.0329670e-001  4.7985348e-001  4.6153846e-001  4.4761905e-001  4.4029304e-001  4.3833944e-001  4.3711844e-001  4.3589744e-001  4.3418803e-001  4.2979243e-001  4.2319902e-001  4.1636142e-001  4.1098901e-001  4.0659341e-001  4.0415140e-001  4.0366300e-001  4.0366300e-001  4.0293040e-001  4.0170940e-001  4.0170940e-001  4.0048840e-001  3.9926740e-001  3.9877900e-001  3.9755800e-001  3.9633700e-001  3.9560440e-001  3.9389499e-001  3.9267399e-001  3.9194139e-001  3.9194139e-001  3.9194139e-001  3.9194139e-001  3.9145299e-001  3.9145299e-001  3.9194139e-001  3.9389499e-001  3.9560440e-001  3.9804640e-001  4.0122100e-001  4.0415140e-001  4.0854701e-001  4.1221001e-001  4.1758242e-001  4.2319902e-001  4.3052503e-001  4.3663004e-001  4.4322344e-001  4.5006105e-001  4.5860806e-001  4.6593407e-001  4.7448107e-001  4.8180708e-001  4.8840049e-001  4.9523810e-001  5.0378510e-001  5.0989011e-001  5.1599512e-001  5.2087912e-001  5.2527473e-001  5.2942613e-001  5.3260073e-001  5.3504274e-001  5.3675214e-001  5.3870574e-001  5.4114774e-001  5.4285714e-001  5.4285714e-001  5.4358974e-001  5.4358974e-001  5.4358974e-001  5.4358974e-001  5.4358974e-001  5.4285714e-001  5.4114774e-001  5.3919414e-001  5.3797314e-001  5.3675214e-001  5.3553114e-001  5.3504274e-001  5.3431013e-001  5.3382173e-001  5.3260073e-001  5.3137973e-001  5.3064713e-001  5.3064713e-001  5.2942613e-001  5.2942613e-001  5.2771673e-001  5.2698413e-001  5.2576313e-001  5.2576313e-001  5.2454212e-001  5.2454212e-001  5.2405372e-001  5.2332112e-001  5.2210012e-001  5.2161172e-001  5.2039072e-001  5.2087912e-001  5.2161172e-001  5.2283272e-001  5.2454212e-001  5.2649573e-001  5.2820513e-001  5.2893773e-001  5.2942613e-001  5.2942613e-001  5.2942613e-001  5.3308913e-001  5.3797314e-001  5.4285714e-001  5.4847375e-001  5.5140415e-001  5.5384615e-001  5.5384615e-001  5.5457875e-001  5.5384615e-001  5.5384615e-001  5.5213675e-001  5.5018315e-001  5.4774115e-001  5.4358974e-001  5.3870574e-001  5.3431013e-001  5.3064713e-001  5.2893773e-001  5.2698413e-001  5.2576313e-001  5.2527473e-001  5.2405372e-001  5.2332112e-001  5.2283272e-001  5.2210012e-001  5.2161172e-001  5.2161172e-001  5.2087912e-001  5.2039072e-001  5.1965812e-001  5.1965812e-001  5.1916972e-001  5.1916972e-001  5.1794872e-001  5.1916972e-001  5.2210012e-001  5.2771673e-001  5.3504274e-001  5.4529915e-001  5.5702076e-001  5.6971917e-001  5.8559219e-001  6.0390720e-001  6.2344322e-001  6.4249084e-001  6.5958486e-001  6.7545788e-001  6.8815629e-001  6.9792430e-001  7.0647131e-001  7.1208791e-001  7.1575092e-001  7.2063492e-001  7.2722833e-001  7.3284493e-001  7.3577534e-001  7.3333333e-001  7.2673993e-001  7.1501832e-001  7.0280830e-001  6.8815629e-001  6.7350427e-001  6.5592186e-001  6.3882784e-001  6.2100122e-001  6.0586081e-001  5.8925519e-001  5.6971917e-001  5.4896215e-001  5.2527473e-001  5.0134310e-001  4.7814408e-001  4.6031746e-001  4.4639805e-001  4.3956044e-001  4.3711844e-001  4.3663004e-001  4.3467643e-001  4.3223443e-001  4.2735043e-001  4.2197802e-001  4.1465201e-001  4.0976801e-001  4.0488400e-001  4.0293040e-001  4.0244200e-001  4.0244200e-001  4.0170940e-001  4.0122100e-001  4.0000000e-001  4.0000000e-001  3.9877900e-001  3.9804640e-001  3.9755800e-001  3.9633700e-001  3.9511600e-001  3.9438339e-001  3.9389499e-001  3.9267399e-001  3.9194139e-001  3.9194139e-001  3.9194139e-001  3.9145299e-001  3.9194139e-001  3.9267399e-001  3.9389499e-001  3.9511600e-001  3.9682540e-001  3.9926740e-001  4.0293040e-001  4.0659341e-001  4.1147741e-001  4.1636142e-001  4.2319902e-001  4.2930403e-001  4.3589744e-001  4.4200244e-001  4.4932845e-001  4.5738706e-001  4.6520147e-001  4.7252747e-001  4.7985348e-001  4.8717949e-001  4.9401709e-001  5.0207570e-001  5.0866911e-001  5.1550672e-001  5.2039072e-001  5.2527473e-001  5.2771673e-001  5.3015873e-001  5.3260073e-001  5.3553114e-001  5.3748474e-001  5.3870574e-001  5.3919414e-001  5.4041514e-001  5.3992674e-001  5.4041514e-001  5.3992674e-001  5.4041514e-001  5.3919414e-001  5.3870574e-001  5.3797314e-001  5.3675214e-001  5.3675214e-001  5.3626374e-001  5.3553114e-001  5.3431013e-001  5.3382173e-001  5.3308913e-001  5.3260073e-001  5.3186813e-001  5.3137973e-001  5.3064713e-001  5.3015873e-001  5.2942613e-001  5.2893773e-001  5.2771673e-001  5.2576313e-001  5.2405372e-001  5.2332112e-001  5.2210012e-001  5.2087912e-001  5.1965812e-001  5.1965812e-001  5.1916972e-001  5.1916972e-001  5.1916972e-001  5.1916972e-001  5.2039072e-001  5.2161172e-001  5.2405372e-001  5.2527473e-001  5.2649573e-001  5.2698413e-001  5.2771673e-001  5.2820513e-001  5.3064713e-001  5.3431013e-001  5.3992674e-001  5.4529915e-001  5.4969475e-001  5.5213675e-001  5.5335775e-001  5.5335775e-001  5.5457875e-001  5.5384615e-001  5.5213675e-001  5.4969475e-001  5.4652015e-001  5.4163614e-001  5.3675214e-001  5.3260073e-001  5.3015873e-001  5.2698413e-001  5.2527473e-001  5.2332112e-001  5.2210012e-001  5.2161172e-001  5.2161172e-001  5.2161172e-001  5.2039072e-001  5.1965812e-001  5.1916972e-001  5.1916972e-001  5.1843712e-001  5.1794872e-001  5.1721612e-001  5.1721612e-001  5.1672772e-001  5.1721612e-001  5.1794872e-001  5.1965812e-001  5.2332112e-001  5.3064713e-001  5.3992674e-001  5.5213675e-001  5.6483516e-001  5.8021978e-001  5.9780220e-001  6.1733822e-001  6.3687424e-001  6.5518926e-001  6.7057387e-001  6.8278388e-001  6.9377289e-001  7.0231990e-001  7.0842491e-001  7.1257631e-001  7.1746032e-001  7.2429792e-001  7.3040293e-001  7.3455433e-001  7.3406593e-001  7.2673993e-001  7.1623932e-001  7.0402930e-001  6.9133089e-001  6.7472527e-001  6.5836386e-001  6.4126984e-001  6.2466422e-001  6.0952381e-001  5.9365079e-001  5.7460317e-001  5.5457875e-001  5.3186813e-001  5.0818071e-001  4.8424908e-001  4.6520147e-001  4.5054945e-001  4.4151404e-001  4.3833944e-001  4.3711844e-001  4.3663004e-001  4.3418803e-001  4.2979243e-001  4.2319902e-001  4.1636142e-001  4.1025641e-001  4.0659341e-001  4.0415140e-001  4.0244200e-001  4.0170940e-001  4.0122100e-001  4.0048840e-001  4.0000000e-001  3.9877900e-001  3.9804640e-001  3.9682540e-001  3.9633700e-001  3.9511600e-001  3.9389499e-001  3.9267399e-001  3.9194139e-001  3.9072039e-001  3.8949939e-001  3.8901099e-001  3.8901099e-001  3.8656899e-001  3.9023199e-001  3.9072039e-001  3.9194139e-001  3.9438339e-001  3.9633700e-001  3.9926740e-001  4.0170940e-001  4.0537241e-001  4.0903541e-001  4.1514042e-001  4.2002442e-001  4.2564103e-001  4.3174603e-001  4.3956044e-001  4.4688645e-001  4.5494505e-001  4.6275946e-001  4.7008547e-001  4.7692308e-001  4.8424908e-001  4.9157509e-001  5.0134310e-001  5.0695971e-001  5.1306471e-001  5.1843712e-001  5.2210012e-001  5.2649573e-001  5.2942613e-001  5.3260073e-001  5.3504274e-001  5.3748474e-001  5.3870574e-001  5.3919414e-001  5.3992674e-001  5.4114774e-001  5.4114774e-001  5.4041514e-001  5.3992674e-001  5.3870574e-001  5.3797314e-001  5.3748474e-001  5.3675214e-001  5.3553114e-001  5.3504274e-001  5.3382173e-001  5.3382173e-001  5.3308913e-001  5.3308913e-001  5.3260073e-001  5.3186813e-001  5.3137973e-001  5.3015873e-001  5.2893773e-001  5.2820513e-001  5.2698413e-001  5.2576313e-001  5.2454212e-001  5.2405372e-001  5.2332112e-001  5.2283272e-001  5.2210012e-001  5.2087912e-001  5.1965812e-001  5.1843712e-001  5.1794872e-001  5.1794872e-001  5.1916972e-001  5.1965812e-001  5.2087912e-001  5.2405372e-001  5.2576313e-001  5.2698413e-001  5.2771673e-001  5.2820513e-001  5.2820513e-001  5.3015873e-001  5.3431013e-001  5.3919414e-001  5.4529915e-001  5.4896215e-001  5.5262515e-001  5.5384615e-001  5.5506716e-001  5.5506716e-001  5.5506716e-001  5.5384615e-001  5.5213675e-001  5.4896215e-001  5.4529915e-001  5.4041514e-001  5.3675214e-001  5.3382173e-001  5.3015873e-001  5.2771673e-001  5.2576313e-001  5.2405372e-001  5.2332112e-001  5.2332112e-001  5.2332112e-001  5.2332112e-001  5.2161172e-001  5.2161172e-001  5.2087912e-001  5.2039072e-001  5.1965812e-001  5.1965812e-001  5.1843712e-001  5.1843712e-001  5.1794872e-001  5.1843712e-001  5.1916972e-001  5.2210012e-001  5.2771673e-001  5.3675214e-001  5.4847375e-001  5.6068376e-001  5.7533578e-001  5.9242979e-001  6.1074481e-001  6.3076923e-001  6.5030525e-001  6.6691087e-001  6.8083028e-001  6.9181929e-001  7.0109890e-001  7.0769231e-001  7.1379731e-001  7.1819292e-001  7.2429792e-001  7.3089133e-001  7.3577534e-001  7.3650794e-001  7.3211233e-001  7.2234432e-001  7.1135531e-001  6.9792430e-001  6.8327228e-001  6.6617827e-001  6.4981685e-001  6.3150183e-001  6.1489621e-001  5.9853480e-001  5.8021978e-001  5.5946276e-001  5.3797314e-001  5.1477411e-001  4.8962149e-001  4.6959707e-001  4.5299145e-001  4.4322344e-001  4.3785104e-001  4.3663004e-001  4.3589744e-001  4.3540904e-001  4.3101343e-001  4.2612943e-001  4.1831502e-001  4.1221001e-001  4.0659341e-001  4.0488400e-001  4.0293040e-001  4.0244200e-001  4.0170940e-001  4.0000000e-001  3.9877900e-001  3.9804640e-001  3.9755800e-001  3.9633700e-001  3.9633700e-001  3.9511600e-001  3.9438339e-001  3.9267399e-001  3.9194139e-001  3.9023199e-001  3.9023199e-001  3.8949939e-001  3.8949939e-001  3.8949939e-001  3.9023199e-001  3.9023199e-001  3.9194139e-001  3.9267399e-001  3.9438339e-001  3.9682540e-001  4.0000000e-001  4.0366300e-001  4.0781441e-001  4.1221001e-001  4.1709402e-001  4.2319902e-001  4.2930403e-001  4.3589744e-001  4.4273504e-001  4.5054945e-001  4.5860806e-001  4.6593407e-001  4.7374847e-001  4.8107448e-001  4.8913309e-001  4.9572650e-001  5.0378510e-001  5.0989011e-001  5.1550672e-001  5.2087912e-001  5.2454212e-001  5.2942613e-001  5.3260073e-001  5.3626374e-001  5.3797314e-001  5.4041514e-001  5.4163614e-001  5.4285714e-001  5.4358974e-001  5.4285714e-001  5.4236874e-001  5.4236874e-001  5.4236874e-001  5.4163614e-001  5.4041514e-001  5.3919414e-001  5.3870574e-001  5.3748474e-001  5.3675214e-001  5.3553114e-001  5.3431013e-001  5.3308913e-001  5.3260073e-001  5.3186813e-001  5.3137973e-001  5.3015873e-001  5.2942613e-001  5.2820513e-001  5.2820513e-001  5.2649573e-001  5.2576313e-001  5.2405372e-001  5.2332112e-001  5.2283272e-001  5.2210012e-001  5.2087912e-001  5.2039072e-001  5.1965812e-001  5.1843712e-001  5.1843712e-001  5.1843712e-001  5.1794872e-001  5.1721612e-001  5.1794872e-001  5.1916972e-001  5.2087912e-001  5.2332112e-001  5.2527473e-001  5.2649573e-001  5.2698413e-001  5.2698413e-001  5.2771673e-001  5.2893773e-001  5.3308913e-001  5.3797314e-001  5.4407814e-001  5.4969475e-001  5.5262515e-001  5.5457875e-001  5.5579976e-001  5.5628816e-001  5.5628816e-001  5.5506716e-001  5.5335775e-001  5.5091575e-001  5.4774115e-001  5.4285714e-001  5.3870574e-001  5.3504274e-001  5.3186813e-001  5.2942613e-001  5.2698413e-001  5.2527473e-001  5.2405372e-001  5.2283272e-001  5.2283272e-001  5.2210012e-001  5.2161172e-001  5.2161172e-001  5.2039072e-001  5.1965812e-001  5.1916972e-001  5.1843712e-001  5.1843712e-001  5.1965812e-001  5.1965812e-001  5.2039072e-001  5.2087912e-001  5.2332112e-001  5.2893773e-001  5.3675214e-001  5.4847375e-001  5.5995116e-001  5.7460317e-001  5.9120879e-001  6.1001221e-001  6.2905983e-001  6.4859585e-001  6.6446886e-001  6.7838828e-001  6.9059829e-001  6.9987790e-001  7.0769231e-001  7.1330891e-001  7.1746032e-001  7.2356532e-001  7.3040293e-001  7.3455433e-001  7.3650794e-001  7.3284493e-001  7.2429792e-001  7.1379731e-001  7.0036630e-001  6.8571429e-001  6.6862027e-001  6.5103785e-001  6.3516484e-001  6.1855922e-001  6.0341880e-001  5.8632479e-001  5.6678877e-001  5.4285714e-001  5.1965812e-001  4.9401709e-001  4.7252747e-001  4.5543346e-001  4.4322344e-001  4.3663004e-001  4.3540904e-001  4.3418803e-001  4.3345543e-001  4.3052503e-001  4.2564103e-001  4.1831502e-001  4.1221001e-001  4.0659341e-001  4.0293040e-001  4.0048840e-001  3.9926740e-001  3.9926740e-001  3.9926740e-001  3.9877900e-001  3.9755800e-001  3.9755800e-001  3.9682540e-001  3.9560440e-001  3.9389499e-001  3.9316239e-001  3.9267399e-001  3.9267399e-001  3.9145299e-001  3.9145299e-001  3.9023199e-001  3.8949939e-001  3.8901099e-001  3.9023199e-001  3.9072039e-001  3.9145299e-001  3.9316239e-001  3.9511600e-001  3.9682540e-001  4.0000000e-001  4.0244200e-001  4.0610501e-001  4.0976801e-001  4.1587302e-001  4.2197802e-001  4.2808303e-001  4.3418803e-001  4.4151404e-001  4.4884005e-001  4.5616606e-001  4.6349206e-001  4.7130647e-001  4.7936508e-001  4.8595849e-001  4.9328449e-001  5.0207570e-001  5.0818071e-001  5.1428571e-001  5.1965812e-001  5.2454212e-001  5.2820513e-001  5.3137973e-001  5.3382173e-001  5.3553114e-001  5.3748474e-001  5.3919414e-001  5.3992674e-001  5.4114774e-001  5.4236874e-001  5.4285714e-001  5.4236874e-001  5.4163614e-001  5.4114774e-001  5.4041514e-001  5.3919414e-001  5.3797314e-001  5.3675214e-001  5.3626374e-001  5.3431013e-001  5.3431013e-001  5.3382173e-001  5.3308913e-001  5.3186813e-001  5.3137973e-001  5.3015873e-001  5.2942613e-001  5.2893773e-001  5.2771673e-001  5.2649573e-001  5.2576313e-001  5.2527473e-001  5.2405372e-001  5.2283272e-001  5.2210012e-001  5.2087912e-001  5.1965812e-001  5.1916972e-001  5.1843712e-001  5.1794872e-001  5.1843712e-001  5.1916972e-001  5.1965812e-001  5.2161172e-001  5.2332112e-001  5.2405372e-001  5.2527473e-001  5.2576313e-001  5.2454212e-001  5.2649573e-001  5.2820513e-001  5.3308913e-001  5.3870574e-001  5.4481074e-001  5.4847375e-001  5.5140415e-001  5.5262515e-001  5.5335775e-001  5.5457875e-001  5.5384615e-001  5.5140415e-001  5.5018315e-001  5.4725275e-001  5.4285714e-001  5.3870574e-001  5.3431013e-001  5.3137973e-001  5.2820513e-001  5.2649573e-001  5.2454212e-001  5.2405372e-001  5.2332112e-001  5.2210012e-001  5.2087912e-001  5.2039072e-001  5.1965812e-001  5.1916972e-001  5.1916972e-001  5.1843712e-001  5.1721612e-001  5.1672772e-001  5.1672772e-001  5.1599512e-001  5.1550672e-001  5.1599512e-001  5.1794872e-001  5.2161172e-001  5.2771673e-001  5.3675214e-001  5.4896215e-001  5.6190476e-001  5.7582418e-001  5.9291819e-001  6.1245421e-001  6.3272283e-001  6.5225885e-001  6.6691087e-001  6.7960928e-001  6.8937729e-001  6.9792430e-001  7.0402930e-001  7.0964591e-001  7.1379731e-001  7.1990232e-001  7.2673993e-001  7.3089133e-001  7.3089133e-001  7.2551893e-001  7.1575092e-001  7.0402930e-001  6.9059829e-001  6.7545788e-001  6.5885226e-001  6.4249084e-001  6.2588523e-001  6.1001221e-001  5.9413919e-001  5.7655678e-001  5.5702076e-001  5.3431013e-001  5.1111111e-001  4.8717949e-001  4.6764347e-001  4.5177045e-001  4.4200244e-001  4.3711844e-001  4.3589744e-001  4.3418803e-001  4.3296703e-001  4.2930403e-001  4.2368742e-001  4.1758242e-001  4.1147741e-001  4.0659341e-001  4.0415140e-001  4.0293040e-001  4.0244200e-001  4.0122100e-001  4.0122100e-001  4.0048840e-001  4.0000000e-001  3.9877900e-001  3.9755800e-001  3.9633700e-001  3.9511600e-001  3.9511600e-001  3.9389499e-001  3.9267399e-001  3.9145299e-001  3.9072039e-001  3.9023199e-001  3.9072039e-001  3.9072039e-001  3.9072039e-001  3.9023199e-001  3.9145299e-001  3.9194139e-001  3.9389499e-001  3.9633700e-001  4.0000000e-001  4.0366300e-001  4.0659341e-001  4.1147741e-001  4.1636142e-001  4.2319902e-001  4.2930403e-001  4.3589744e-001  4.4322344e-001  4.5177045e-001  4.5860806e-001  4.6593407e-001  4.7326007e-001  4.8058608e-001  4.8791209e-001  4.9523810e-001  5.0256410e-001  5.0818071e-001  5.1306471e-001  5.1843712e-001  5.2210012e-001  5.2649573e-001  5.3015873e-001  5.3260073e-001  5.3431013e-001  5.3626374e-001  5.3797314e-001  5.3870574e-001  5.3870574e-001  5.3919414e-001  5.3919414e-001  5.3919414e-001  5.3870574e-001  5.3748474e-001  5.3748474e-001  5.3675214e-001  5.3553114e-001  5.3504274e-001  5.3431013e-001  5.3308913e-001  5.3260073e-001  5.3137973e-001  5.3064713e-001  5.3015873e-001  5.2893773e-001  5.2820513e-001  5.2698413e-001  5.2649573e-001  5.2527473e-001  5.2405372e-001  5.2405372e-001  5.2283272e-001  5.2087912e-001  5.2039072e-001  5.2039072e-001  5.1965812e-001  5.1916972e-001  5.1843712e-001  5.1721612e-001  5.1721612e-001  5.1721612e-001  5.1916972e-001  5.2039072e-001  5.2210012e-001  5.2405372e-001  5.2576313e-001  5.2649573e-001  5.2649573e-001  5.2649573e-001  5.2893773e-001  5.3260073e-001  5.3797314e-001  5.4358974e-001  5.4896215e-001  5.5262515e-001  5.5384615e-001  5.5506716e-001  5.5579976e-001  5.5506716e-001  5.5384615e-001  5.5213675e-001  5.4896215e-001  5.4529915e-001  5.4041514e-001  5.3553114e-001  5.3186813e-001  5.3015873e-001  5.2771673e-001  5.2527473e-001  5.2332112e-001  5.2210012e-001  5.2161172e-001  5.2161172e-001  5.2039072e-001  5.1916972e-001  5.1916972e-001  5.1843712e-001  5.1843712e-001  5.1721612e-001  5.1721612e-001  5.1672772e-001  5.1721612e-001  5.1672772e-001  5.1672772e-001  5.1794872e-001  5.2161172e-001  5.2698413e-001  5.3504274e-001  5.4529915e-001  5.5824176e-001  5.7216117e-001  5.8925519e-001  6.0757021e-001  6.2783883e-001  6.4664225e-001  6.6373626e-001  6.7789988e-001  6.8937729e-001  6.9792430e-001  7.0647131e-001  7.1208791e-001  7.1623932e-001  7.2185592e-001  7.2844933e-001  7.3333333e-001  7.3528694e-001  7.3089133e-001  7.2356532e-001  7.1208791e-001  6.9914530e-001  6.8449328e-001  6.6813187e-001  6.5152625e-001  6.3443223e-001  6.1855922e-001  6.0268620e-001  5.8559219e-001  5.6483516e-001  5.4285714e-001  5.1916972e-001  4.9450549e-001  4.7326007e-001  4.5543346e-001  4.4395604e-001  4.3785104e-001  4.3589744e-001  4.3589744e-001  4.3418803e-001  4.3101343e-001  4.2564103e-001  4.1953602e-001  4.1343101e-001  4.0732601e-001  4.0293040e-001  4.0048840e-001  4.0000000e-001  3.9926740e-001  3.9926740e-001  3.9877900e-001  3.9755800e-001  3.9633700e-001  3.9560440e-001  3.9511600e-001  3.9389499e-001  3.9267399e-001  3.9267399e-001  3.9145299e-001  3.9072039e-001  3.8949939e-001  3.8901099e-001  3.8778999e-001  3.8705739e-001  3.8778999e-001  3.8901099e-001  3.8949939e-001  3.9145299e-001  3.9316239e-001  3.9511600e-001  3.9804640e-001  4.0170940e-001  4.0610501e-001  4.0976801e-001  4.1514042e-001  4.2197802e-001  4.2857143e-001  4.3540904e-001  4.4273504e-001  4.4932845e-001  4.5738706e-001  4.6471306e-001  4.7252747e-001  4.7985348e-001  4.8717949e-001  4.9401709e-001  5.0256410e-001  5.0866911e-001  5.1477411e-001  5.1965812e-001  5.2405372e-001  5.2698413e-001  5.3064713e-001  5.3382173e-001  5.3675214e-001  5.3870574e-001  5.4041514e-001  5.4163614e-001  5.4236874e-001  5.4285714e-001  5.4236874e-001  5.4163614e-001  5.4041514e-001  5.3992674e-001  5.3870574e-001  5.3797314e-001  5.3626374e-001  5.3626374e-001  5.3504274e-001  5.3431013e-001  5.3308913e-001  5.3308913e-001  5.3186813e-001  5.3137973e-001  5.3064713e-001  5.2942613e-001  5.2820513e-001  5.2771673e-001  5.2771673e-001  5.2698413e-001  5.2527473e-001  5.2405372e-001  5.2332112e-001  5.2161172e-001  5.2161172e-001  5.2039072e-001  5.1965812e-001  5.1916972e-001  5.1843712e-001  5.1843712e-001  5.1843712e-001  5.1843712e-001  5.1916972e-001  5.1916972e-001  5.2161172e-001  5.2405372e-001  5.2576313e-001  5.2698413e-001  5.2771673e-001  5.2698413e-001  5.2820513e-001  5.2942613e-001  5.3382173e-001  5.3919414e-001  5.4529915e-001  5.4969475e-001  5.5335775e-001  5.5506716e-001  5.5579976e-001  5.5628816e-001  5.5628816e-001  5.5628816e-001  5.5384615e-001  5.5213675e-001  5.4847375e-001  5.4358974e-001  5.3870574e-001  5.3504274e-001  5.3137973e-001  5.2942613e-001  5.2771673e-001  5.2576313e-001  5.2454212e-001  5.2405372e-001  5.2405372e-001  5.2332112e-001  5.2210012e-001  5.2161172e-001  5.2087912e-001  5.1965812e-001  5.1916972e-001  5.1843712e-001  5.1843712e-001  5.1794872e-001  5.1721612e-001  5.1721612e-001  5.1843712e-001  5.2161172e-001  5.2698413e-001  5.3553114e-001  5.4652015e-001  5.5946276e-001  5.7411477e-001  5.9047619e-001  6.0830281e-001  6.2832723e-001  6.4786325e-001  6.6373626e-001  6.7789988e-001  6.9010989e-001  6.9914530e-001  7.0647131e-001  7.1208791e-001  7.1697192e-001  7.2307692e-001  7.3040293e-001  7.3577534e-001  7.3821734e-001  7.3455433e-001  7.2673993e-001  7.1501832e-001  7.0280830e-001  6.8815629e-001  6.7179487e-001  6.5518926e-001  6.3687424e-001  6.2051282e-001  6.0463980e-001  5.8754579e-001  5.6800977e-001  5.4603175e-001  5.2283272e-001  4.9645910e-001  4.7496947e-001  4.5616606e-001  4.4444444e-001  4.3711844e-001  4.3540904e-001  4.3418803e-001  4.3223443e-001  4.2979243e-001  4.2612943e-001  4.1953602e-001  4.1269841e-001  4.0781441e-001  4.0415140e-001  4.0244200e-001  4.0122100e-001  4.0000000e-001  3.9926740e-001  3.9804640e-001  3.9755800e-001  3.9682540e-001  3.9560440e-001  3.9511600e-001  3.9389499e-001  3.9316239e-001  3.9194139e-001  3.9145299e-001  3.9072039e-001  3.9023199e-001  3.8949939e-001  3.8949939e-001  3.8901099e-001  3.8901099e-001  3.8949939e-001  3.8949939e-001  3.9145299e-001  3.9194139e-001  3.9438339e-001  3.9755800e-001  4.0048840e-001  4.0488400e-001  4.0976801e-001  4.1391941e-001  4.2002442e-001  4.2612943e-001  4.3345543e-001  4.3956044e-001  4.4761905e-001  4.5494505e-001  4.6275946e-001  4.7081807e-001  4.7814408e-001  4.8473748e-001  4.9157509e-001  5.0012210e-001  5.0622711e-001  5.1233211e-001  5.1672772e-001  5.2161172e-001  5.2527473e-001  5.2942613e-001  5.3186813e-001  5.3431013e-001  5.3675214e-001  5.3870574e-001  5.3919414e-001  5.3992674e-001  5.3992674e-001  5.4041514e-001  5.4041514e-001  5.4041514e-001  5.3919414e-001  5.3870574e-001  5.3675214e-001  5.3675214e-001  5.3553114e-001  5.3504274e-001  5.3308913e-001  5.3260073e-001  5.3137973e-001  5.3064713e-001  5.2942613e-001  5.2893773e-001  5.2771673e-001  5.2698413e-001  5.2576313e-001  5.2454212e-001  5.2405372e-001  5.2332112e-001  5.2283272e-001  5.2210012e-001  5.2161172e-001  5.2087912e-001  5.1965812e-001  5.1843712e-001  5.1843712e-001  5.1721612e-001  5.1599512e-001  5.1599512e-001  5.1672772e-001  5.1794872e-001  5.1965812e-001  5.2210012e-001  5.2454212e-001  5.2527473e-001  5.2576313e-001  5.2576313e-001  5.2649573e-001  5.2893773e-001  5.3260073e-001  5.3797314e-001  5.4358974e-001  5.4774115e-001  5.5091575e-001  5.5262515e-001  5.5262515e-001  5.5335775e-001  5.5262515e-001  5.5213675e-001  5.5018315e-001  5.4847375e-001  5.4481074e-001  5.4041514e-001  5.3626374e-001  5.3186813e-001  5.2893773e-001  5.2649573e-001  5.2454212e-001  5.2454212e-001  5.2332112e-001  5.2283272e-001  5.2210012e-001  5.2161172e-001  5.2087912e-001  5.2087912e-001  5.2039072e-001  5.1916972e-001  5.1843712e-001  5.1843712e-001  5.1843712e-001  5.1843712e-001  5.1843712e-001  5.1794872e-001  5.1916972e-001  5.2210012e-001  5.2893773e-001  5.3748474e-001  5.4896215e-001  5.6239316e-001  5.7704518e-001  5.9365079e-001  6.1245421e-001  6.3076923e-001  6.4908425e-001  6.6373626e-001  6.7594628e-001  6.8693529e-001  6.9426129e-001  6.9987790e-001  7.0280830e-001  7.0598291e-001  7.1013431e-001  7.1575092e-001  7.1941392e-001  7.1941392e-001  7.1452991e-001  7.0476190e-001  6.9010989e-001  6.8034188e-001  6.6495726e-001  6.4981685e-001  6.3199023e-001  6.1562882e-001  6.0097680e-001  5.8803419e-001  5.7216117e-001  5.5457875e-001  5.3431013e-001  5.1184371e-001  4.8840049e-001  4.7008547e-001  4.5543346e-001  4.4566545e-001  4.4078144e-001  4.3956044e-001  4.3833944e-001  4.3663004e-001  4.3345543e-001  4.2857143e-001  4.2319902e-001  4.1636142e-001  4.1221001e-001  4.0976801e-001  4.0854701e-001  4.0659341e-001  4.0610501e-001  4.0488400e-001  4.0415140e-001  4.0366300e-001  4.0366300e-001  4.0244200e-001  4.0244200e-001  4.0170940e-001  4.0122100e-001  3.9926740e-001  3.9877900e-001  3.9804640e-001  3.9804640e-001  3.9755800e-001  3.9755800e-001  3.9755800e-001  3.9804640e-001  3.9926740e-001  4.0048840e-001  4.0244200e-001  4.0415140e-001  4.0610501e-001  4.0732601e-001  4.0976801e-001  4.1269841e-001  4.1709402e-001  4.2319902e-001  4.2930403e-001  4.3467643e-001  4.4151404e-001  4.4761905e-001  4.5543346e-001  4.6227106e-001  4.7008547e-001  4.7692308e-001  4.8473748e-001  4.9157509e-001  5.0012210e-001  5.0573871e-001  5.1111111e-001  5.1672772e-001  5.2039072e-001  5.2454212e-001  5.2820513e-001  5.3137973e-001  5.3431013e-001  5.3626374e-001  5.3748474e-001  5.3870574e-001  5.3919414e-001  5.4041514e-001  5.4041514e-001  5.4041514e-001  5.4041514e-001  5.3992674e-001  5.3870574e-001  5.3797314e-001  5.3675214e-001  5.3675214e-001  5.3553114e-001  5.3431013e-001  5.3382173e-001  5.3308913e-001  5.3186813e-001  5.3137973e-001  5.3137973e-001  5.3015873e-001  5.2942613e-001  5.2942613e-001  5.2820513e-001  5.2649573e-001  5.2649573e-001  5.2454212e-001  5.2405372e-001  5.2332112e-001  5.2332112e-001  5.2283272e-001  5.2210012e-001  5.2087912e-001  5.2039072e-001  5.1965812e-001  5.2039072e-001  5.2039072e-001  5.2087912e-001  5.2161172e-001  5.2283272e-001  5.2454212e-001  5.2698413e-001  5.2771673e-001  5.2771673e-001  5.2820513e-001  5.3015873e-001  5.3260073e-001  5.3797314e-001  5.4358974e-001  5.4847375e-001  5.5140415e-001  5.5262515e-001  5.5262515e-001  5.5262515e-001  5.5262515e-001  5.5213675e-001  5.5091575e-001  5.4847375e-001  5.4529915e-001  5.4114774e-001  5.3626374e-001  5.3186813e-001  5.2942613e-001  5.2649573e-001  5.2454212e-001  5.2332112e-001  5.2210012e-001  5.2210012e-001  5.2210012e-001  5.2210012e-001  5.2161172e-001  5.2039072e-001  5.1916972e-001  5.1843712e-001  5.1843712e-001  5.1843712e-001  5.1721612e-001  5.1721612e-001  5.1721612e-001  5.1721612e-001  5.1916972e-001  5.2210012e-001  5.2771673e-001  5.3797314e-001  5.5018315e-001  5.6361416e-001  5.7826618e-001  5.9536020e-001  6.1245421e-001  6.3150183e-001  6.4859585e-001  6.6324786e-001  6.7545788e-001  6.8449328e-001  6.9181929e-001  6.9743590e-001  7.0109890e-001  7.0402930e-001  7.0964591e-001  7.1452991e-001  7.1575092e-001  7.1330891e-001  7.0647131e-001  6.9548230e-001  6.8327228e-001  6.7106227e-001  6.5763126e-001  6.4249084e-001  6.2588523e-001  6.1001221e-001  5.9731380e-001  5.8315018e-001  5.6849817e-001  5.5140415e-001  5.3260073e-001  5.1111111e-001  4.8840049e-001  4.6959707e-001  4.5494505e-001  4.4444444e-001  4.4029304e-001  4.4029304e-001  4.4029304e-001  4.3833944e-001  4.3540904e-001  4.3052503e-001  4.2442002e-001  4.1880342e-001  4.1391941e-001  4.1098901e-001  4.0854701e-001  4.0732601e-001  4.0659341e-001  4.0610501e-001  4.0537241e-001  4.0488400e-001  4.0415140e-001  4.0366300e-001  4.0122100e-001  4.0000000e-001  3.9877900e-001  3.9755800e-001  3.9633700e-001  3.9511600e-001  3.9438339e-001  3.9389499e-001  3.9389499e-001  3.9389499e-001  3.9438339e-001  3.9511600e-001  3.9560440e-001  3.9633700e-001  3.9877900e-001  4.0048840e-001  4.0293040e-001  4.0659341e-001  4.1025641e-001  4.1465201e-001  4.1953602e-001  4.2612943e-001  4.3174603e-001  4.3907204e-001  4.4566545e-001  4.5372405e-001  4.6105006e-001  4.6837607e-001  4.7496947e-001  4.8180708e-001  4.8962149e-001  4.9645910e-001  5.0451770e-001  5.0989011e-001  5.1550672e-001  5.2087912e-001  5.2454212e-001  5.2820513e-001  5.3137973e-001  5.3382173e-001  5.3504274e-001  5.3675214e-001  5.3797314e-001  5.3919414e-001  5.3870574e-001  5.4041514e-001  5.4041514e-001  5.4041514e-001  5.3992674e-001  5.3919414e-001  5.3797314e-001  5.3675214e-001  5.3553114e-001  5.3504274e-001  5.3431013e-001  5.3308913e-001  5.3186813e-001  5.3137973e-001  5.3015873e-001  5.2942613e-001  5.2942613e-001  5.2893773e-001  5.2820513e-001  5.2576313e-001  5.2576313e-001  5.2454212e-001  5.2405372e-001  5.2332112e-001  5.2210012e-001  5.2087912e-001  5.2087912e-001  5.2039072e-001  5.1965812e-001  5.1916972e-001  5.1916972e-001  5.1721612e-001  5.1721612e-001  5.1672772e-001  5.1721612e-001  5.1916972e-001  5.2087912e-001  5.2332112e-001  5.2454212e-001  5.2698413e-001  5.2820513e-001  5.2820513e-001  5.2893773e-001  5.3015873e-001  5.3308913e-001  5.3870574e-001  5.4407814e-001  5.4969475e-001  5.5262515e-001  5.5384615e-001  5.5384615e-001  5.5384615e-001  5.5335775e-001  5.5262515e-001  5.5140415e-001  5.4969475e-001  5.4652015e-001  5.4358974e-001  5.3870574e-001  5.3382173e-001  5.3015873e-001  5.2698413e-001  5.2527473e-001  5.2332112e-001  5.2210012e-001  5.2161172e-001  5.2161172e-001  5.2161172e-001  5.2039072e-001  5.1916972e-001  5.1916972e-001  5.1843712e-001  5.1794872e-001  5.1599512e-001  5.1672772e-001  5.1550672e-001  5.1672772e-001  5.1721612e-001  5.1916972e-001  5.2332112e-001  5.3064713e-001  5.3797314e-001  5.5213675e-001  5.6312576e-001  5.8144078e-001  5.9853480e-001  6.1855922e-001  6.3687424e-001  6.5470085e-001  6.6813187e-001  6.8083028e-001  6.9133089e-001  7.0036630e-001  7.0720391e-001  7.1208791e-001  7.1697192e-001  7.2356532e-001  7.2918193e-001  7.3211233e-001  7.3089133e-001  7.2429792e-001  7.1452991e-001  7.0231990e-001  6.8815629e-001  6.7228327e-001  6.5518926e-001  6.3760684e-001  6.1978022e-001  6.0463980e-001  5.8925519e-001  5.7094017e-001  5.5140415e-001  5.3015873e-001  5.0744811e-001  4.8302808e-001  4.6398046e-001  4.4884005e-001  4.3956044e-001  4.3663004e-001  4.3663004e-001  4.3589744e-001  4.3418803e-001  4.3052503e-001  4.2442002e-001  4.1831502e-001  4.1221001e-001  4.0854701e-001  4.0537241e-001  4.0366300e-001  4.0293040e-001  4.0244200e-001  4.0122100e-001  4.0048840e-001  4.0000000e-001  3.9926740e-001  3.9755800e-001  3.9682540e-001  3.9633700e-001  3.9511600e-001  3.9511600e-001  3.9389499e-001  3.9316239e-001  3.9194139e-001  3.9145299e-001  3.9023199e-001  3.9072039e-001  3.9072039e-001  3.9145299e-001  3.9267399e-001  3.9316239e-001  3.9511600e-001  3.9877900e-001  4.0048840e-001  4.0415140e-001  4.0732601e-001  4.1221001e-001  4.1709402e-001  4.2442002e-001  4.3101343e-001  4.3785104e-001  4.4517705e-001  4.5250305e-001  4.6105006e-001  4.7008547e-001  4.7619048e-001  4.8424908e-001  4.9157509e-001  5.0012210e-001  5.0622711e-001  5.1233211e-001  5.1794872e-001  5.2283272e-001  5.2698413e-001  5.3064713e-001  5.3308913e-001  5.3553114e-001  5.3797314e-001  5.3919414e-001  5.4114774e-001  5.4163614e-001  5.4358974e-001  5.4358974e-001  5.4358974e-001  5.4285714e-001  5.4236874e-001  5.3992674e-001  5.3992674e-001  5.3870574e-001  5.3797314e-001  5.3675214e-001  5.3675214e-001  5.3504274e-001  5.3431013e-001  5.3308913e-001  5.3260073e-001  5.3137973e-001  5.3015873e-001  5.3015873e-001  5.2893773e-001  5.2893773e-001  5.2698413e-001  5.2698413e-001  5.2649573e-001  5.2527473e-001  5.2405372e-001  5.2405372e-001  5.2332112e-001  5.2283272e-001  5.2210012e-001  5.2161172e-001  5.2087912e-001  5.2039072e-001  5.1965812e-001  5.1916972e-001  5.1916972e-001  5.1843712e-001  5.1916972e-001  5.1965812e-001  5.2087912e-001  5.2332112e-001  5.2576313e-001  5.2771673e-001  5.2942613e-001  5.3064713e-001  5.3137973e-001  5.3137973e-001  5.3308913e-001  5.3553114e-001  5.3992674e-001  5.4603175e-001  5.5091575e-001  5.5457875e-001  5.5628816e-001  5.5579976e-001  5.5506716e-001  5.5506716e-001  5.5457875e-001  5.5384615e-001  5.5213675e-001  5.4969475e-001  5.4652015e-001  5.4163614e-001  5.3675214e-001  5.3260073e-001  5.3015873e-001  5.2893773e-001  5.2649573e-001  5.2454212e-001  5.2405372e-001  5.2332112e-001  5.2210012e-001  5.2161172e-001  5.2039072e-001  5.1965812e-001  5.1916972e-001  5.1916972e-001  5.1794872e-001  5.1721612e-001  5.1672772e-001  5.1721612e-001  5.1721612e-001  5.1965812e-001  5.2454212e-001  5.3186813e-001  5.4236874e-001  5.5384615e-001  5.6678877e-001  5.8192918e-001  6.0024420e-001  6.2051282e-001  6.4053724e-001  6.5641026e-001  6.7179487e-001  6.8400488e-001  6.9548230e-001  7.0476190e-001  7.1135531e-001  7.1623932e-001  7.2185592e-001  7.2844933e-001  7.3455433e-001  7.3772894e-001  7.3650794e-001  7.2918193e-001  7.1990232e-001  7.0720391e-001  6.9426129e-001  6.7838828e-001  6.6080586e-001  6.4297924e-001  6.2588523e-001  6.1001221e-001  5.9291819e-001  5.7289377e-001  5.5140415e-001  5.2820513e-001  5.0451770e-001  4.7985348e-001  4.6105006e-001  4.4566545e-001  4.3663004e-001  4.3345543e-001  4.3345543e-001  4.3296703e-001  4.3101343e-001  4.2808303e-001  4.2197802e-001  4.1514042e-001  4.0903541e-001  4.0488400e-001  4.0170940e-001  4.0000000e-001  3.9926740e-001  3.9877900e-001  3.9804640e-001  3.9755800e-001  3.9755800e-001  3.9682540e-001  3.9633700e-001  3.9438339e-001  3.9389499e-001  3.9194139e-001  3.9072039e-001  3.8901099e-001  3.8827839e-001  3.8705739e-001  3.8656899e-001  3.8656899e-001  3.8656899e-001  3.8656899e-001  3.8705739e-001  3.8778999e-001  3.8949939e-001  3.9145299e-001  3.9389499e-001  3.9633700e-001  4.0122100e-001  4.0537241e-001  4.0976801e-001  4.1587302e-001  4.2197802e-001  4.2808303e-001  4.3540904e-001  4.4273504e-001  4.5054945e-001  4.5860806e-001  4.6593407e-001  4.7448107e-001  4.8180708e-001  4.8913309e-001  4.9523810e-001  5.0451770e-001  5.0989011e-001  5.1672772e-001  5.2087912e-001  5.2576313e-001  5.2942613e-001  5.3308913e-001  5.3553114e-001  5.3748474e-001  5.3919414e-001  5.4114774e-001  5.4163614e-001  5.4285714e-001  5.4285714e-001  5.4285714e-001  5.4285714e-001  5.4236874e-001  5.4114774e-001  5.3992674e-001  5.3870574e-001  5.3748474e-001  5.3675214e-001  5.3553114e-001  5.3431013e-001  5.3382173e-001  5.3186813e-001  5.3064713e-001  5.2942613e-001  5.2893773e-001  5.2820513e-001  5.2820513e-001  5.2698413e-001  5.2649573e-001  5.2527473e-001  5.2454212e-001  5.2454212e-001  5.2405372e-001  5.2332112e-001  5.2210012e-001  5.2161172e-001  5.2039072e-001  5.1916972e-001  5.1916972e-001  5.1843712e-001  5.1794872e-001  5.1794872e-001  5.1721612e-001  5.1794872e-001  5.1721612e-001  5.1672772e-001  5.1672772e-001  5.1672772e-001  5.1721612e-001  5.1721612e-001  5.1843712e-001  5.1916972e-001  5.2161172e-001  5.2405372e-001  5.2698413e-001  5.3015873e-001  5.3260073e-001  5.3382173e-001  5.3431013e-001  5.3504274e-001  5.3626374e-001  5.3870574e-001  5.4285714e-001  5.4847375e-001  5.5335775e-001  5.5702076e-001  5.5873016e-001  5.5873016e-001  5.5946276e-001  5.5873016e-001  5.5824176e-001  5.5628816e-001  5.5384615e-001  5.5262515e-001  5.4847375e-001  5.4407814e-001  5.3919414e-001  5.3504274e-001  5.3186813e-001  5.2893773e-001  5.2698413e-001  5.2527473e-001  5.2405372e-001  5.2405372e-001  5.2332112e-001  5.2283272e-001  5.2210012e-001  5.2161172e-001  5.2087912e-001  5.2039072e-001  5.1965812e-001  5.1843712e-001  5.1843712e-001  5.1794872e-001  5.1843712e-001  5.2039072e-001  5.2454212e-001  5.3186813e-001  5.4236874e-001  5.5384615e-001  5.6800977e-001  5.8388278e-001  6.0268620e-001  6.2295482e-001  6.4297924e-001  6.5885226e-001  6.7472527e-001  6.8644689e-001  6.9792430e-001  7.0720391e-001  7.1452991e-001  7.1941392e-001  7.2478632e-001  7.3211233e-001  7.3772894e-001  7.4065934e-001  7.4017094e-001  7.3333333e-001  7.2356532e-001  7.1135531e-001  6.9670330e-001  6.8034188e-001  6.6324786e-001  6.4615385e-001  6.2783883e-001  6.1245421e-001  5.9487179e-001  5.7533578e-001  5.5262515e-001  5.2942613e-001  5.0451770e-001  4.7936508e-001  4.5982906e-001  4.4444444e-001  4.3540904e-001  4.3296703e-001  4.3223443e-001  4.3174603e-001  4.2979243e-001  4.2612943e-001  4.2075702e-001  4.1465201e-001  4.0854701e-001  4.0415140e-001  4.0122100e-001  4.0000000e-001  3.9877900e-001  3.9877900e-001  3.9755800e-001  3.9633700e-001  3.9633700e-001  3.9511600e-001  3.9389499e-001  3.9316239e-001  3.9267399e-001  3.9145299e-001  3.9023199e-001  3.8901099e-001  3.8778999e-001  3.8705739e-001  3.8705739e-001  3.8656899e-001  3.8656899e-001  3.8656899e-001  3.8705739e-001  3.8827839e-001  3.8949939e-001  3.9194139e-001  3.9511600e-001  3.9804640e-001  4.0122100e-001  4.0488400e-001  4.0903541e-001  4.1465201e-001  4.2075702e-001  4.2686203e-001  4.3345543e-001  4.4078144e-001  4.4810745e-001  4.5616606e-001  4.6398046e-001  4.7130647e-001  4.7863248e-001  4.8669109e-001  4.9401709e-001  5.0329670e-001  5.0940171e-001  5.1477411e-001  5.1965812e-001  5.2405372e-001  5.2771673e-001  5.3064713e-001  5.3382173e-001  5.3553114e-001  5.3748474e-001  5.3870574e-001  5.3992674e-001  5.4041514e-001  5.4114774e-001  5.4114774e-001  5.4163614e-001  5.4114774e-001  5.3992674e-001  5.3797314e-001  5.3675214e-001  5.3553114e-001  5.3553114e-001  5.3431013e-001  5.3382173e-001  5.3308913e-001  5.3260073e-001  5.3137973e-001  5.3064713e-001  5.2942613e-001  5.2893773e-001  5.2893773e-001  5.2820513e-001  5.2771673e-001  5.2698413e-001  5.2649573e-001  5.2454212e-001  5.2405372e-001  5.2332112e-001  5.2210012e-001  5.2161172e-001  5.2161172e-001  5.2039072e-001  5.1965812e-001  5.1916972e-001  5.1916972e-001  5.1843712e-001  5.1794872e-001  5.1721612e-001  5.1721612e-001  5.1721612e-001  5.1721612e-001  5.1721612e-001  5.1721612e-001  5.1794872e-001  5.1843712e-001  5.2039072e-001  5.2210012e-001  5.2454212e-001  5.2698413e-001  5.3064713e-001  5.3308913e-001  5.3504274e-001  5.3553114e-001  5.3675214e-001  5.3748474e-001  5.3919414e-001  5.4163614e-001  5.4725275e-001  5.5262515e-001  5.5750916e-001  5.5995116e-001  5.5995116e-001  5.5946276e-001  5.5946276e-001  5.5995116e-001  5.5995116e-001  5.5824176e-001  5.5628816e-001  5.5213675e-001  5.4774115e-001  5.4285714e-001  5.3748474e-001  5.3382173e-001  5.3064713e-001  5.2820513e-001  5.2649573e-001  5.2454212e-001  5.2405372e-001  5.2332112e-001  5.2210012e-001  5.2161172e-001  5.2039072e-001  5.1965812e-001  5.1916972e-001  5.1843712e-001  5.1672772e-001  5.1599512e-001  5.1550672e-001  5.1672772e-001  5.1843712e-001  5.2161172e-001  5.2820513e-001  5.3797314e-001  5.4847375e-001  5.6117216e-001  5.7533578e-001  5.9169719e-001  6.1074481e-001  6.3076923e-001  6.4981685e-001  6.6568987e-001  6.7960928e-001  6.9059829e-001  6.9987790e-001  7.0647131e-001  7.1135531e-001  7.1452991e-001  7.1990232e-001  7.2551893e-001  7.2967033e-001  7.3040293e-001  7.2600733e-001  7.1697192e-001  7.0598291e-001  6.9304029e-001  6.7912088e-001  6.6251526e-001  6.4542125e-001  6.2832723e-001  6.1245421e-001  5.9731380e-001  5.7899878e-001  5.5946276e-001  5.3797314e-001  5.1355311e-001  4.8913309e-001  4.6837607e-001  4.5177045e-001  4.4200244e-001  4.3711844e-001  4.3663004e-001  4.3589744e-001  4.3467643e-001  4.3101343e-001  4.2612943e-001  4.1953602e-001  4.1343101e-001  4.0781441e-001  4.0537241e-001  4.0293040e-001  4.0170940e-001  4.0122100e-001  4.0048840e-001  3.9926740e-001  3.9877900e-001  3.9804640e-001  3.9682540e-001  3.9633700e-001  3.9633700e-001  3.9560440e-001  3.9511600e-001  3.9511600e-001  3.9389499e-001  3.9316239e-001  3.9267399e-001  3.9194139e-001  3.9194139e-001  3.9194139e-001  3.9194139e-001  3.9267399e-001  3.9389499e-001  3.9633700e-001  3.9877900e-001  4.0048840e-001  4.0366300e-001  4.0732601e-001  4.1147741e-001  4.1587302e-001  4.2075702e-001  4.2686203e-001  4.3345543e-001  4.3956044e-001  4.4688645e-001  4.5421245e-001  4.6153846e-001  4.6886447e-001  4.7619048e-001  4.8302808e-001  4.9035409e-001  4.9572650e-001  5.0378510e-001  5.0989011e-001  5.1599512e-001  5.2039072e-001  5.2405372e-001  5.2649573e-001  5.2942613e-001  5.3137973e-001  5.3382173e-001  5.3504274e-001  5.3675214e-001  5.3748474e-001  5.3797314e-001  5.3870574e-001  5.3797314e-001  5.3870574e-001  5.3748474e-001  5.3675214e-001  5.3553114e-001  5.3504274e-001  5.3382173e-001  5.3382173e-001  5.3308913e-001  5.3186813e-001  5.3015873e-001  5.2942613e-001  5.2893773e-001  5.2893773e-001  5.2820513e-001  5.2771673e-001  5.2649573e-001  5.2454212e-001  5.2405372e-001  5.2332112e-001  5.2283272e-001  5.2210012e-001  5.2161172e-001  5.2161172e-001  5.2039072e-001  5.1916972e-001  5.1794872e-001  5.1672772e-001  5.1599512e-001  5.1599512e-001  5.1599512e-001  5.1477411e-001  5.1550672e-001  5.1477411e-001  5.1477411e-001  5.1477411e-001  5.1477411e-001  5.1550672e-001  5.1599512e-001  5.1550672e-001  5.1672772e-001  5.1721612e-001  5.1794872e-001  5.1965812e-001  5.2283272e-001  5.2527473e-001  5.2771673e-001  5.2942613e-001  5.3137973e-001  5.3186813e-001  5.3186813e-001  5.3382173e-001  5.3553114e-001  5.3919414e-001  5.4481074e-001  5.4969475e-001  5.5262515e-001  5.5384615e-001  5.5457875e-001  5.5457875e-001  5.5457875e-001  5.5384615e-001  5.5262515e-001  5.4969475e-001  5.4652015e-001  5.4358974e-001  5.3870574e-001  5.3431013e-001  5.3064713e-001  5.2820513e-001  5.2527473e-001  5.2405372e-001  5.2210012e-001  5.2087912e-001  5.2039072e-001  5.2087912e-001  5.2039072e-001  5.1916972e-001  5.1843712e-001  5.1721612e-001  5.1721612e-001  5.1599512e-001  5.1550672e-001  5.1477411e-001  5.1477411e-001  5.1550672e-001  5.1794872e-001  5.2039072e-001  5.2576313e-001  5.3431013e-001  5.4725275e-001  5.6068376e-001  5.7582418e-001  5.9169719e-001  6.0879121e-001  6.2661783e-001  6.4420024e-001  6.5763126e-001  6.6984127e-001  6.7789988e-001  6.8205128e-001  6.8522589e-001  6.8571429e-001  6.8693529e-001  6.8888889e-001  6.9059829e-001  6.9181929e-001  6.8888889e-001  6.8156288e-001  6.7057387e-001  6.5714286e-001  6.4542125e-001  6.3150183e-001  6.1684982e-001  6.0146520e-001  5.8754579e-001  5.7582418e-001  5.6556777e-001  5.5384615e-001  5.4114774e-001  5.2576313e-001  5.0818071e-001  4.8717949e-001  4.7008547e-001  4.5543346e-001  4.4639805e-001  4.4273504e-001  4.4273504e-001  4.4322344e-001  4.4200244e-001  4.4029304e-001  4.3589744e-001  4.3101343e-001  4.2490842e-001  4.2075702e-001  4.1758242e-001  4.1514042e-001  4.1465201e-001  4.1391941e-001  4.1391941e-001  4.1343101e-001  4.1343101e-001  4.1343101e-001  4.1221001e-001  4.1221001e-001  4.1147741e-001  4.1147741e-001  4.1025641e-001  4.0976801e-001  4.0854701e-001  4.0781441e-001  4.0732601e-001  4.0659341e-001  4.0732601e-001  4.0659341e-001  4.0732601e-001  4.0781441e-001  4.0903541e-001  4.1025641e-001  4.1221001e-001  4.1391941e-001  4.1758242e-001  4.2197802e-001  4.2612943e-001  4.2979243e-001  4.3467643e-001  4.4029304e-001  4.4566545e-001  4.5128205e-001  4.5787546e-001  4.6471306e-001  4.7203907e-001  4.7936508e-001  4.8595849e-001  4.9206349e-001  4.9768010e-001  5.0500611e-001  5.0989011e-001  5.1477411e-001  5.1916972e-001  5.2332112e-001  5.2576313e-001  5.2893773e-001  5.3186813e-001  5.3431013e-001  5.3553114e-001  5.3675214e-001  5.3870574e-001  5.3919414e-001  5.3992674e-001  5.4041514e-001  5.4041514e-001  5.3992674e-001  5.3919414e-001  5.3870574e-001  5.3748474e-001  5.3675214e-001  5.3553114e-001  5.3504274e-001  5.3382173e-001  5.3308913e-001  5.3308913e-001  5.3260073e-001  5.3186813e-001  5.3186813e-001  5.3186813e-001  5.3186813e-001  5.3186813e-001  5.3137973e-001  5.3064713e-001  5.2820513e-001  5.2332112e-001  5.1355311e-001  5.0012210e-001  4.8229548e-001  4.6837607e-001  4.5665446e-001  4.5006105e-001  4.4566545e-001  4.4444444e-001  4.4688645e-001  4.5299145e-001  4.6227106e-001  4.7496947e-001  4.9035409e-001  5.0500611e-001  5.1306471e-001  5.1306471e-001  5.0622711e-001  4.9279609e-001  4.7448107e-001  4.5177045e-001  4.2612943e-001  4.0122100e-001  3.7973138e-001  3.6214896e-001  3.5238095e-001  3.5115995e-001  3.6019536e-001  3.7924298e-001  4.0415140e-001  4.3052503e-001  4.5616606e-001  4.7619048e-001  4.8913309e-001  4.9523810e-001  5.0012210e-001  5.0256410e-001  5.0695971e-001  5.1111111e-001  5.1672772e-001  5.2332112e-001  5.3186813e-001  5.4163614e-001  5.4969475e-001  5.5628816e-001  5.5995116e-001  5.6483516e-001  5.6678877e-001  5.6678877e-001  5.6727717e-001  5.6800977e-001  5.6971917e-001  5.6971917e-001  5.6971917e-001  5.7289377e-001  5.7338217e-001  5.7582418e-001  5.7826618e-001  5.8144078e-001  5.8388278e-001  5.8754579e-001  5.9047619e-001  5.9413919e-001  5.9731380e-001  6.0024420e-001  6.0463980e-001  6.0757021e-001  6.1123321e-001  6.1489621e-001  6.1855922e-001  6.2100122e-001  6.2417582e-001  6.2710623e-001  6.2905983e-001  6.3076923e-001  6.3272283e-001  6.3272283e-001  6.3321123e-001  6.3321123e-001  6.3321123e-001  6.3199023e-001  6.3076923e-001  6.2783883e-001  6.2539683e-001  6.2173382e-001  6.1807082e-001  6.1367521e-001  6.1001221e-001  6.0512821e-001  6.0097680e-001  5.9658120e-001  5.9169719e-001  5.8681319e-001  5.8266178e-001  5.7704518e-001  5.7216117e-001  5.6727717e-001  5.6312576e-001  5.5873016e-001  5.5384615e-001  5.5018315e-001  5.4603175e-001  5.4285714e-001  5.3870574e-001  5.3626374e-001  5.3382173e-001  5.3186813e-001  5.2942613e-001  5.2820513e-001  5.2649573e-001  5.2527473e-001  5.2332112e-001  5.2161172e-001  5.1965812e-001  5.1843712e-001  5.1721612e-001  5.1599512e-001  5.1599512e-001  5.1477411e-001  5.1477411e-001  5.1428571e-001  5.1428571e-001  5.1355311e-001  5.1306471e-001  5.1184371e-001  5.1233211e-001  5.1184371e-001  5.1184371e-001  5.1184371e-001  5.1184371e-001  5.1111111e-001  5.1111111e-001  5.1062271e-001  5.1062271e-001  5.1062271e-001  5.1062271e-001  5.1111111e-001  5.1062271e-001  5.1062271e-001  5.1062271e-001  5.1062271e-001  5.0989011e-001  5.0989011e-001  5.1062271e-001  5.1062271e-001  5.0989011e-001  5.0989011e-001  5.0989011e-001  5.0989011e-001  5.0989011e-001  5.0989011e-001  5.0940171e-001  5.0989011e-001  5.0989011e-001  5.1062271e-001  5.0989011e-001  5.1062271e-001  5.0989011e-001  5.1062271e-001  5.1062271e-001  5.1111111e-001  5.0989011e-001  5.0989011e-001  5.0989011e-001  5.0989011e-001  5.1062271e-001  5.1062271e-001  5.1111111e-001  5.1111111e-001  5.1062271e-001  5.1062271e-001  5.1062271e-001  5.1111111e-001  5.1233211e-001  5.1233211e-001  5.1184371e-001  5.1184371e-001  5.1184371e-001  5.1111111e-001  5.1233211e-001  5.1233211e-001  5.1233211e-001  5.1184371e-001  5.1233211e-001  5.1233211e-001  5.1306471e-001  5.1306471e-001  5.1355311e-001  5.1428571e-001  5.1477411e-001  5.1477411e-001  5.1477411e-001  5.1428571e-001  5.1428571e-001  5.1477411e-001  5.1428571e-001  5.1428571e-001  5.1428571e-001  5.1477411e-001  5.1477411e-001  5.1599512e-001  5.1672772e-001  5.1599512e-001  5.1550672e-001  5.1550672e-001  5.1550672e-001  5.1550672e-001  5.1550672e-001  5.1672772e-001  5.1794872e-001  5.2039072e-001  5.2210012e-001  5.2332112e-001  5.2405372e-001  5.2454212e-001  5.2527473e-001  5.2576313e-001  5.2698413e-001  5.2942613e-001  5.3382173e-001  5.3797314e-001  5.4114774e-001  5.4285714e-001  5.4285714e-001  5.4163614e-001  5.4114774e-001  5.3992674e-001  5.3919414e-001  5.3797314e-001  5.3626374e-001  5.3260073e-001  5.2942613e-001  5.2405372e-001  5.2039072e-001  5.1721612e-001  5.1477411e-001  5.1355311e-001  5.1233211e-001  5.1184371e-001  5.1111111e-001  5.1111111e-001  5.0989011e-001  5.0940171e-001  5.0818071e-001  5.0744811e-001  5.0695971e-001  5.0622711e-001  5.0622711e-001  5.0622711e-001  5.0622711e-001  5.0744811e-001  5.0989011e-001  5.1428571e-001  5.2087912e-001  5.3064713e-001  5.4236874e-001  5.5506716e-001  5.6971917e-001  5.8754579e-001  6.0463980e-001  6.2222222e-001  6.3809524e-001  6.5152625e-001  6.6080586e-001  6.6935287e-001  6.7594628e-001  6.8083028e-001  6.8571429e-001  6.9059829e-001  6.9670330e-001  7.0158730e-001  7.0402930e-001  7.0354090e-001  6.9670330e-001  6.8644689e-001  6.7423687e-001  6.6080586e-001  6.4615385e-001  6.2905983e-001  6.1245421e-001  5.9536020e-001  5.8070818e-001  5.6727717e-001  5.5384615e-001  5.3748474e-001  5.1916972e-001  4.9645910e-001  4.7692308e-001  4.5860806e-001  4.4395604e-001  4.3418803e-001  4.2930403e-001  4.2979243e-001  4.3052503e-001  4.3101343e-001  4.2930403e-001  4.2490842e-001  4.1953602e-001  4.1343101e-001  4.0903541e-001  4.0610501e-001  4.0415140e-001  4.0488400e-001  4.0366300e-001  4.0293040e-001  4.0244200e-001  4.0244200e-001  4.0170940e-001  4.0122100e-001  4.0048840e-001  4.0000000e-001  4.0000000e-001  3.9926740e-001  3.9877900e-001  3.9804640e-001  3.9877900e-001  3.9877900e-001  3.9804640e-001  3.9804640e-001  3.9804640e-001  3.9877900e-001  3.9926740e-001  4.0000000e-001  4.0122100e-001  4.0122100e-001  4.0244200e-001  4.0415140e-001  4.0659341e-001  4.1025641e-001  4.1391941e-001  4.1758242e-001  4.2197802e-001  4.2564103e-001  4.3101343e-001  4.3663004e-001  4.4322344e-001  4.4932845e-001  4.5616606e-001  4.6227106e-001  4.6886447e-001  4.7496947e-001  4.8058608e-001  4.8595849e-001  4.9206349e-001  4.9768010e-001  5.0451770e-001  5.0989011e-001  5.1477411e-001  5.1916972e-001  5.2210012e-001  5.2527473e-001  5.2820513e-001  5.3015873e-001  5.3186813e-001  5.3382173e-001  5.3553114e-001  5.3797314e-001  5.3797314e-001  5.3992674e-001  5.4041514e-001  5.4041514e-001  5.3992674e-001  5.3919414e-001  5.3919414e-001  5.3870574e-001  5.3797314e-001  5.3797314e-001  5.3675214e-001  5.3626374e-001  5.3553114e-001  5.3382173e-001  5.3260073e-001  5.3186813e-001  5.3137973e-001  5.3064713e-001  5.3015873e-001  5.2942613e-001  5.2942613e-001  5.2820513e-001  5.2771673e-001  5.2576313e-001  5.2405372e-001  5.2332112e-001  5.2283272e-001  5.2161172e-001  5.2087912e-001  5.1965812e-001  5.1916972e-001  5.1843712e-001  5.1794872e-001  5.1721612e-001  5.1672772e-001  5.1672772e-001  5.1599512e-001  5.1550672e-001  5.1550672e-001  5.1599512e-001  5.1672772e-001  5.1794872e-001  5.1965812e-001  5.2283272e-001  5.2527473e-001  5.2771673e-001  5.2893773e-001  5.2942613e-001  5.3015873e-001  5.3186813e-001  5.3382173e-001  5.3870574e-001  5.4358974e-001  5.4896215e-001  5.5262515e-001  5.5457875e-001  5.5506716e-001  5.5579976e-001  5.5579976e-001  5.5506716e-001  5.5384615e-001  5.5213675e-001  5.4969475e-001  5.4603175e-001  5.4163614e-001  5.3797314e-001  5.3382173e-001  5.3064713e-001  5.2893773e-001  5.2698413e-001  5.2576313e-001  5.2454212e-001  5.2405372e-001  5.2332112e-001  5.2332112e-001  5.2210012e-001  5.2161172e-001  5.2087912e-001  5.1965812e-001  5.1916972e-001  5.1916972e-001  5.1916972e-001  5.1916972e-001  5.1916972e-001  5.1965812e-001  5.2210012e-001  5.2698413e-001  5.3431013e-001  5.4407814e-001  5.5702076e-001  5.7045177e-001  5.8681319e-001  6.0463980e-001  6.2295482e-001  6.4126984e-001  6.5641026e-001  6.6984127e-001  6.8205128e-001  6.9181929e-001  7.0109890e-001  7.0720391e-001  7.1257631e-001  7.1746032e-001  7.2356532e-001  7.2844933e-001  7.3089133e-001  7.2918193e-001  7.2234432e-001  7.1257631e-001  6.9914530e-001  6.8522589e-001  6.6813187e-001  6.5152625e-001  6.3321123e-001  6.1733822e-001  6.0146520e-001  5.8510379e-001  5.6678877e-001  5.4652015e-001  5.2527473e-001  5.0256410e-001  4.7814408e-001  4.5982906e-001  4.4566545e-001  4.3711844e-001  4.3418803e-001  4.3467643e-001  4.3418803e-001  4.3345543e-001  4.2979243e-001  4.2490842e-001  4.1831502e-001  4.1269841e-001  4.0854701e-001  4.0659341e-001  4.0488400e-001  4.0415140e-001  4.0366300e-001  4.0244200e-001  4.0170940e-001  4.0122100e-001  4.0000000e-001  3.9877900e-001  3.9755800e-001  3.9633700e-001  3.9511600e-001  3.9389499e-001  3.9316239e-001  3.9145299e-001  3.9145299e-001  3.9023199e-001  3.9023199e-001  3.8949939e-001  3.9023199e-001  3.9023199e-001  3.9194139e-001  3.9316239e-001  3.9511600e-001  3.9755800e-001  4.0000000e-001  4.0244200e-001  4.0659341e-001  4.1098901e-001  4.1636142e-001  4.2197802e-001  4.2857143e-001  4.3467643e-001  4.4151404e-001  4.4932845e-001  4.5738706e-001  4.6471306e-001  4.7203907e-001  4.7936508e-001  4.8669109e-001  4.9328449e-001  5.0207570e-001  5.0818071e-001  5.1355311e-001  5.1843712e-001  5.2332112e-001  5.2771673e-001  5.3064713e-001  5.3308913e-001  5.3553114e-001  5.3797314e-001  5.3919414e-001  5.4041514e-001  5.4163614e-001  5.4163614e-001  5.4163614e-001  5.4163614e-001  5.4163614e-001  5.4114774e-001  5.4041514e-001  5.3992674e-001  5.3870574e-001  5.3797314e-001  5.3675214e-001  5.3626374e-001  5.3504274e-001  5.3431013e-001  5.3382173e-001  5.3260073e-001  5.3137973e-001  5.3015873e-001  5.2942613e-001  5.2893773e-001  5.2771673e-001  5.2698413e-001  5.2649573e-001  5.2527473e-001  5.2527473e-001  5.2527473e-001  5.2405372e-001  5.2405372e-001  5.2332112e-001  5.2283272e-001  5.2161172e-001  5.2039072e-001  5.1965812e-001  5.1965812e-001  5.1916972e-001  5.1843712e-001  5.1721612e-001  5.1672772e-001  5.1599512e-001  5.1721612e-001  5.1843712e-001  5.1965812e-001  5.2210012e-001  5.2527473e-001  5.2698413e-001  5.2893773e-001  5.3015873e-001  5.3137973e-001  5.3186813e-001  5.3260073e-001  5.3308913e-001  5.3504274e-001  5.3919414e-001  5.4529915e-001  5.5018315e-001  5.5335775e-001  5.5457875e-001  5.5457875e-001  5.5579976e-001  5.5457875e-001  5.5384615e-001  5.5140415e-001  5.4896215e-001  5.4603175e-001  5.4163614e-001  5.3748474e-001  5.3382173e-001  5.3064713e-001  5.2893773e-001  5.2698413e-001  5.2454212e-001  5.2332112e-001  5.2161172e-001  5.2039072e-001  5.1965812e-001  5.1916972e-001  5.1843712e-001  5.1794872e-001  5.1672772e-001  5.1721612e-001  5.1672772e-001  5.1672772e-001  5.1721612e-001  5.1672772e-001  5.1599512e-001  5.1721612e-001  5.1965812e-001  5.2454212e-001  5.3137973e-001  5.4236874e-001  5.5384615e-001  5.6727717e-001  5.8192918e-001  6.0097680e-001  6.1733822e-001  6.3443223e-001  6.5030525e-001  6.6373626e-001  6.7301587e-001  6.8034188e-001  6.8522589e-001  6.8644689e-001  6.8644689e-001  6.8693529e-001  6.9059829e-001  6.9426129e-001  6.9499389e-001  6.9255189e-001  6.8449328e-001  6.7179487e-001  6.5836386e-001  6.4542125e-001  6.3076923e-001  6.1562882e-001  6.0097680e-001  5.8754579e-001  5.7704518e-001  5.6556777e-001  5.5262515e-001  5.3797314e-001  5.2161172e-001  5.0329670e-001  4.8351648e-001  4.6837607e-001  4.5543346e-001  4.4810745e-001  4.4395604e-001  4.4395604e-001  4.4273504e-001  4.4078144e-001  4.3785104e-001  4.3418803e-001  4.2930403e-001  4.2442002e-001  4.1953602e-001  4.1636142e-001  4.1465201e-001  4.1391941e-001  4.1343101e-001  4.1391941e-001  4.1269841e-001  4.1269841e-001  4.1221001e-001  4.1098901e-001  4.0976801e-001  4.0732601e-001  4.0903541e-001  4.0781441e-001  4.0659341e-001  4.0659341e-001  4.0610501e-001  4.0488400e-001  4.0415140e-001  4.0415140e-001  4.0488400e-001  4.0610501e-001  4.0659341e-001  4.0854701e-001  4.1025641e-001  4.1221001e-001  4.1514042e-001  4.1831502e-001  4.2075702e-001  4.2490842e-001  4.2979243e-001  4.3467643e-001  4.4029304e-001  4.4517705e-001  4.5128205e-001  4.5665446e-001  4.6349206e-001  4.6886447e-001  4.7496947e-001  4.8107448e-001  4.8913309e-001  4.9523810e-001  5.0256410e-001  5.0744811e-001  5.1233211e-001  5.1721612e-001  5.2161172e-001  5.2405372e-001  5.2771673e-001  5.3064713e-001  5.3308913e-001  5.3504274e-001  5.3675214e-001  5.3870574e-001  5.3919414e-001  5.3992674e-001  5.3992674e-001  5.3919414e-001  5.3919414e-001  5.3992674e-001  5.3919414e-001  5.3870574e-001  5.3797314e-001  5.3675214e-001  5.3431013e-001  5.3382173e-001  5.3260073e-001  5.3137973e-001  5.3064713e-001  5.3064713e-001  5.3015873e-001  5.2893773e-001  5.2820513e-001  5.2820513e-001  5.2698413e-001  5.2649573e-001  5.2576313e-001  5.2454212e-001  5.2405372e-001  5.2332112e-001  5.2405372e-001  5.2332112e-001  5.2283272e-001  5.2210012e-001  5.2210012e-001  5.2283272e-001  5.2210012e-001  5.2161172e-001  5.2039072e-001  5.1965812e-001  5.2087912e-001  5.2161172e-001  5.2332112e-001  5.2527473e-001  5.2649573e-001  5.2698413e-001  5.2698413e-001  5.2771673e-001  5.2820513e-001  5.3064713e-001  5.3431013e-001  5.3919414e-001  5.4358974e-001  5.4725275e-001  5.4847375e-001  5.5018315e-001  5.5091575e-001  5.5091575e-001  5.5018315e-001  5.4969475e-001  5.4652015e-001  5.4407814e-001  5.4114774e-001  5.3797314e-001  5.3431013e-001  5.3186813e-001  5.2942613e-001  5.2698413e-001  5.2454212e-001  5.2332112e-001  5.2210012e-001  5.2087912e-001  5.2087912e-001  5.2039072e-001  5.1965812e-001  5.1843712e-001  5.1672772e-001  5.1599512e-001  5.1550672e-001  5.1550672e-001  5.1550672e-001  5.1477411e-001  5.1428571e-001  5.1428571e-001  5.1550672e-001  5.1721612e-001  5.2087912e-001  5.2771673e-001  5.3797314e-001  5.5091575e-001  5.6312576e-001  5.7704518e-001  5.9120879e-001  6.0586081e-001  6.2051282e-001  6.3394383e-001  6.4542125e-001  6.5396825e-001  6.5836386e-001  6.6080586e-001  6.6007326e-001  6.5836386e-001  6.5714286e-001  6.5836386e-001  6.5885226e-001  6.5714286e-001  6.5103785e-001  6.4126984e-001  6.2783883e-001  6.1562882e-001  6.0268620e-001  5.9047619e-001  5.7826618e-001  5.6727717e-001  5.5824176e-001  5.5262515e-001  5.4725275e-001  5.3870574e-001  5.2893773e-001  5.1599512e-001  5.0134310e-001  4.8424908e-001  4.7081807e-001  4.6105006e-001  4.5494505e-001  4.5299145e-001  4.5299145e-001  4.5421245e-001  4.5421245e-001  4.5177045e-001  4.4810745e-001  4.4273504e-001  4.3833944e-001  4.3467643e-001  4.3345543e-001  4.3174603e-001  4.3174603e-001  4.3101343e-001  4.3101343e-001  4.3052503e-001  4.2930403e-001  4.2930403e-001  4.2808303e-001  4.2686203e-001  4.2612943e-001  4.2564103e-001  4.2368742e-001  4.2368742e-001  4.2319902e-001  4.2319902e-001  4.2197802e-001  4.2124542e-001  4.2124542e-001  4.2124542e-001  4.2075702e-001  4.2197802e-001  4.2197802e-001  4.2442002e-001  4.2612943e-001  4.2930403e-001  4.3052503e-001  4.3296703e-001  4.3589744e-001  4.4029304e-001  4.4517705e-001  4.4932845e-001  4.5543346e-001  4.6105006e-001  4.6642247e-001  4.7326007e-001  4.7814408e-001  4.8424908e-001  4.9035409e-001  4.9694750e-001  5.0451770e-001  5.0989011e-001  5.1599512e-001  5.2087912e-001  5.2405372e-001  5.2698413e-001  5.3015873e-001  5.3260073e-001  5.3504274e-001  5.3797314e-001  5.3919414e-001  5.4041514e-001  5.4041514e-001  5.4041514e-001  5.4041514e-001  5.4041514e-001  5.4041514e-001  5.3992674e-001  5.3919414e-001  5.3797314e-001  5.3748474e-001  5.3626374e-001  5.3504274e-001  5.3382173e-001  5.3308913e-001  5.3382173e-001  5.3260073e-001  5.3137973e-001  5.3015873e-001  5.2942613e-001  5.2942613e-001  5.2893773e-001  5.2820513e-001  5.2698413e-001  5.2649573e-001  5.2576313e-001  5.2576313e-001  5.2454212e-001  5.2405372e-001  5.2332112e-001  5.2210012e-001  5.2161172e-001  5.2161172e-001  5.2087912e-001  5.2039072e-001  5.1965812e-001  5.1965812e-001  5.1916972e-001  5.1916972e-001  5.2039072e-001  5.2161172e-001  5.2332112e-001  5.2454212e-001  5.2527473e-001  5.2576313e-001  5.2576313e-001  5.2698413e-001  5.2893773e-001  5.3186813e-001  5.3675214e-001  5.4285714e-001  5.4652015e-001  5.4896215e-001  5.5091575e-001  5.5140415e-001  5.5091575e-001  5.5018315e-001  5.5018315e-001  5.4774115e-001  5.4529915e-001  5.4236874e-001  5.3870574e-001  5.3382173e-001  5.3137973e-001  5.2942613e-001  5.2820513e-001  5.2698413e-001  5.2527473e-001  5.2405372e-001  5.2405372e-001  5.2210012e-001  5.2210012e-001  5.2039072e-001  5.2087912e-001  5.1965812e-001  5.1916972e-001  5.1843712e-001  5.1843712e-001  5.1794872e-001  5.1794872e-001  5.1843712e-001  5.1916972e-001  5.1965812e-001  5.2161172e-001  5.2527473e-001  5.3308913e-001  5.4285714e-001  5.5457875e-001  5.6727717e-001  5.8070818e-001  5.9609280e-001  6.1123321e-001  6.2661783e-001  6.4004884e-001  6.5103785e-001  6.5885226e-001  6.6568987e-001  6.6984127e-001  6.7228327e-001  6.7301587e-001  6.7545788e-001  6.7912088e-001  6.8278388e-001  6.8400488e-001  6.8083028e-001  6.7228327e-001  6.6080586e-001  6.4859585e-001  6.3565324e-001  6.2173382e-001  6.0830281e-001  5.9536020e-001  5.8315018e-001  5.7338217e-001  5.6434676e-001  5.5335775e-001  5.3992674e-001  5.2405372e-001  5.0622711e-001  4.8791209e-001  4.7252747e-001  4.6227106e-001  4.5494505e-001  4.5299145e-001  4.5250305e-001  4.5250305e-001  4.5128205e-001  4.4884005e-001  4.4517705e-001  4.4029304e-001  4.3540904e-001  4.3052503e-001  4.2808303e-001  4.2564103e-001  4.2490842e-001  4.2442002e-001  4.2368742e-001  4.2246642e-001  4.2197802e-001  4.2075702e-001  4.2002442e-001  4.1831502e-001  4.1709402e-001  4.1636142e-001  4.1514042e-001  4.1343101e-001  4.1269841e-001  4.1147741e-001  4.1098901e-001  4.0976801e-001  4.0976801e-001  4.0976801e-001  4.1147741e-001  4.1098901e-001  4.1147741e-001  4.1269841e-001  4.1514042e-001  4.1709402e-001  4.2002442e-001  4.2368742e-001  4.2735043e-001  4.3174603e-001  4.3589744e-001  4.4151404e-001  4.4688645e-001  4.5372405e-001  4.6031746e-001  4.6764347e-001  4.7448107e-001  4.8107448e-001  4.8791209e-001  4.9328449e-001  5.0134310e-001  5.0744811e-001  5.1306471e-001  5.1916972e-001  5.2332112e-001  5.2820513e-001  5.3186813e-001  5.3431013e-001  5.3675214e-001  5.3919414e-001  5.4114774e-001  5.4236874e-001  5.4285714e-001  5.4358974e-001  5.4407814e-001  5.4358974e-001  5.4358974e-001  5.4358974e-001  5.4358974e-001  5.4285714e-001  5.4163614e-001  5.4114774e-001  5.4041514e-001  5.3870574e-001  5.3870574e-001  5.3748474e-001  5.3626374e-001  5.3431013e-001  5.3382173e-001  5.3308913e-001  5.3260073e-001  5.3186813e-001  5.3186813e-001  5.3064713e-001  5.3015873e-001  5.3015873e-001  5.2942613e-001  5.2820513e-001  5.2649573e-001  5.2576313e-001  5.2527473e-001  5.2527473e-001  5.2405372e-001  5.2332112e-001  5.2283272e-001  5.2210012e-001  5.2210012e-001  5.2210012e-001  5.2210012e-001  5.2283272e-001  5.2283272e-001  5.2332112e-001  5.2454212e-001  5.2698413e-001  5.2820513e-001  5.3015873e-001  5.3137973e-001  5.3186813e-001  5.3186813e-001  5.3308913e-001  5.3553114e-001  5.3919414e-001  5.4407814e-001  5.4896215e-001  5.5140415e-001  5.5335775e-001  5.5457875e-001  5.5457875e-001  5.5457875e-001  5.5335775e-001  5.5262515e-001  5.5018315e-001  5.4847375e-001  5.4603175e-001  5.4163614e-001  5.3748474e-001  5.3382173e-001  5.3186813e-001  5.3015873e-001  5.2893773e-001  5.2698413e-001  5.2576313e-001  5.2527473e-001  5.2454212e-001  5.2405372e-001  5.2332112e-001  5.2283272e-001  5.2210012e-001  5.2210012e-001  5.2161172e-001  5.2087912e-001  5.2087912e-001  5.2087912e-001  5.2087912e-001  5.2210012e-001  5.2405372e-001  5.2820513e-001  5.3553114e-001  5.4529915e-001  5.5702076e-001  5.7045177e-001  5.8388278e-001  6.0024420e-001  6.1929182e-001  6.3638584e-001  6.5225885e-001  6.6495726e-001  6.7594628e-001  6.8571429e-001  6.9426129e-001  7.0036630e-001  7.0525031e-001  7.1013431e-001  7.1623932e-001  7.2112332e-001  7.2234432e-001  7.1941392e-001  7.1135531e-001  7.0036630e-001  6.8693529e-001  6.7301587e-001  6.5763126e-001  6.4126984e-001  6.2466422e-001  6.0879121e-001  5.9413919e-001  5.8021978e-001  5.6361416e-001  